LTO 900°C Fast auf LLTO  Original Data
 3151 
 12            371 
 12,02         359 
 12,04         401 
 12,06         386 
 12,08         340 
 12,1          385 
 12,12         372 
 12,14         379 
 12,16         348 
 12,18         378 
 12,2          380 
 12,22         402 
 12,24         386 
 12,26         426 
 12,28         372 
 12,3          402 
 12,32         350 
 12,34         438 
 12,36         374 
 12,38         402 
 12,4          394 
 12,42         370 
 12,44         361 
 12,46         394 
 12,48         322 
 12,5          379 
 12,52         383 
 12,54         339 
 12,56         410 
 12,58         367 
 12,6          394 
 12,62         348 
 12,64         383 
 12,66         389 
 12,68         372 
 12,7          382 
 12,72         383 
 12,74         410 
 12,76         398 
 12,78         420 
 12,8          367 
 12,82         406 
 12,84         395 
 12,86         408 
 12,88         375 
 12,9          381 
 12,92         362 
 12,94         418 
 12,96         353 
 12,98         387 
 13            368 
 13,02         391 
 13,04         398 
 13,06         395 
 13,08         387 
 13,1          370 
 13,12         374 
 13,14         332 
 13,16         395 
 13,18         340 
 13,2          379 
 13,22         350 
 13,24         398 
 13,26         331 
 13,28         359 
 13,3          343 
 13,32         381 
 13,34         336 
 13,36         360 
 13,38         366 
 13,4          342 
 13,42         407 
 13,44         352 
 13,46         380 
 13,48         346 
 13,5          340 
 13,52         340 
 13,54         345 
 13,56         323 
 13,58         350 
 13,6          339 
 13,62         358 
 13,64         377 
 13,66         327 
 13,68         347 
 13,7          313 
 13,72         361 
 13,74         296 
 13,76         345 
 13,78         338 
 13,8          328 
 13,82         333 
 13,84         320 
 13,86         337 
 13,88         327 
 13,9          372 
 13,92         353 
 13,94         322 
 13,96         339 
 13,98         337 
 14            333 
 14,02         293 
 14,04         320 
 14,06         316 
 14,08         283 
 14,1          345 
 14,12         330 
 14,14         323 
 14,16         299 
 14,18         325 
 14,2          293 
 14,22         300 
 14,24         298 
 14,26         295 
 14,28         295 
 14,3          293 
 14,32         322 
 14,34         291 
 14,36         318 
 14,38         309 
 14,4          310 
 14,42         267 
 14,44         279 
 14,46         266 
 14,48         273 
 14,5          293 
 14,52         265 
 14,54         248 
 14,56         291 
 14,58         264 
 14,6          270 
 14,62         269 
 14,64         257 
 14,66         289 
 14,68         269 
 14,7          267 
 14,72         242 
 14,74         258 
 14,76         269 
 14,78         261 
 14,8          292 
 14,82         274 
 14,84         243 
 14,86         252 
 14,88         236 
 14,9          269 
 14,92         276 
 14,94         256 
 14,96         238 
 14,98         238 
 15            258 
 15,02         237 
 15,04         261 
 15,06         251 
 15,08         260 
 15,1          249 
 15,12         237 
 15,14         224 
 15,16         260 
 15,18         253 
 15,2          223 
 15,22         255 
 15,24         225 
 15,26         233 
 15,28         238 
 15,3          249 
 15,32         237 
 15,34         266 
 15,36         235 
 15,38         241 
 15,4          233 
 15,42         239 
 15,44         250 
 15,46         238 
 15,48         205 
 15,5          233 
 15,52         233 
 15,54         233 
 15,56         230 
 15,58         230 
 15,6          244 
 15,62         238 
 15,64         251 
 15,66         233 
 15,68         236 
 15,7          224 
 15,72         241 
 15,74         247 
 15,76         240 
 15,78         240 
 15,8          227 
 15,82         241 
 15,84         236 
 15,86         223 
 15,88         239 
 15,9          242 
 15,92         210 
 15,94         209 
 15,96         232 
 15,98         249 
 16            245 
 16,02         214 
 16,04         217 
 16,06         222 
 16,08         243 
 16,1          240 
 16,12         226 
 16,14         230 
 16,16         234 
 16,18         235 
 16,2          234 
 16,22         199 
 16,24         244 
 16,26         219 
 16,28         235 
 16,3          207 
 16,32         219 
 16,34         218 
 16,36         217 
 16,38         207 
 16,4          219 
 16,42         193 
 16,44         240 
 16,46         210 
 16,48         227 
 16,5          214 
 16,52         210 
 16,54         218 
 16,56         219 
 16,58         237 
 16,6          244 
 16,62         194 
 16,64         217 
 16,66         209 
 16,68         224 
 16,7          230 
 16,72         208 
 16,74         215 
 16,76         230 
 16,78         224 
 16,8          224 
 16,82         225 
 16,84         220 
 16,86         205 
 16,88         205 
 16,9          221 
 16,92         219 
 16,94         198 
 16,96         231 
 16,98         222 
 17            211 
 17,02         195 
 17,04         219 
 17,06         211 
 17,08         214 
 17,1          245 
 17,12         237 
 17,14         203 
 17,16         250 
 17,18         197 
 17,2          217 
 17,22         229 
 17,24         219 
 17,26         200 
 17,28         223 
 17,3          223 
 17,32         214 
 17,34         236 
 17,36         212 
 17,38         230 
 17,4          200 
 17,42         216 
 17,44         182 
 17,46         199 
 17,48         227 
 17,5          220 
 17,52         238 
 17,54         216 
 17,56         228 
 17,58         212 
 17,6          201 
 17,62         197 
 17,64         250 
 17,66         221 
 17,68         216 
 17,7          203 
 17,72         227 
 17,74         226 
 17,76         220 
 17,78         230 
 17,8          228 
 17,82         252 
 17,84         211 
 17,86         246 
 17,88         249 
 17,9          240 
 17,92         239 
 17,94         216 
 17,96         249 
 17,98         254 
 18            257 
 18,02         269 
 18,04         269 
 18,06         274 
 18,08         311 
 18,1          294 
 18,12         341 
 18,14         350 
 18,16         308 
 18,18         391 
 18,2          426 
 18,22         452 
 18,24         554 
 18,26         600 
 18,28         708 
 18,3          810 
 18,32         933 
 18,34         1064 
 18,36         1188 
 18,38         1385 
 18,4          1568 
 18,42         1611 
 18,44         1680 
 18,46         1670 
 18,48         1614 
 18,5          1483 
 18,52         1206 
 18,54         1037 
 18,56         777 
 18,58         608 
 18,6          488 
 18,62         369 
 18,64         329 
 18,66         292 
 18,68         271 
 18,7          253 
 18,72         258 
 18,74         248 
 18,76         238 
 18,78         237 
 18,8          252 
 18,82         230 
 18,84         232 
 18,86         223 
 18,88         183 
 18,9          215 
 18,92         235 
 18,94         227 
 18,96         220 
 18,98         208 
 19            199 
 19,02         221 
 19,04         188 
 19,06         217 
 19,08         195 
 19,1          220 
 19,12         197 
 19,14         177 
 19,16         207 
 19,18         188 
 19,2          225 
 19,22         210 
 19,24         223 
 19,26         211 
 19,28         189 
 19,3          195 
 19,32         207 
 19,34         223 
 19,36         205 
 19,38         201 
 19,4          191 
 19,42         217 
 19,44         203 
 19,46         197 
 19,48         196 
 19,5          216 
 19,52         203 
 19,54         195 
 19,56         184 
 19,58         198 
 19,6          212 
 19,62         194 
 19,64         226 
 19,66         212 
 19,68         192 
 19,7          193 
 19,72         184 
 19,74         200 
 19,76         215 
 19,78         189 
 19,8          200 
 19,82         163 
 19,84         187 
 19,86         204 
 19,88         208 
 19,9          198 
 19,92         190 
 19,94         209 
 19,96         216 
 19,98         197 
 20            211 
 20,02         215 
 20,04         179 
 20,06         214 
 20,08         191 
 20,1          202 
 20,12         211 
 20,14         198 
 20,16         173 
 20,18         215 
 20,2          193 
 20,22         214 
 20,24         205 
 20,26         199 
 20,28         211 
 20,3          187 
 20,32         190 
 20,34         193 
 20,36         228 
 20,38         204 
 20,4          238 
 20,42         224 
 20,44         215 
 20,46         196 
 20,48         225 
 20,5          223 
 20,52         245 
 20,54         242 
 20,56         266 
 20,58         221 
 20,6          248 
 20,62         278 
 20,64         334 
 20,66         281 
 20,68         292 
 20,7          336 
 20,72         330 
 20,74         322 
 20,76         336 
 20,78         340 
 20,8          335 
 20,82         377 
 20,84         342 
 20,86         349 
 20,88         361 
 20,9          349 
 20,92         357 
 20,94         346 
 20,96         380 
 20,98         342 
 21            357 
 21,02         338 
 21,04         341 
 21,06         319 
 21,08         325 
 21,1          291 
 21,12         323 
 21,14         279 
 21,16         296 
 21,18         301 
 21,2          272 
 21,22         274 
 21,24         242 
 21,26         255 
 21,28         232 
 21,3          244 
 21,32         215 
 21,34         225 
 21,36         176 
 21,38         189 
 21,4          207 
 21,42         171 
 21,44         181 
 21,46         205 
 21,48         205 
 21,5          182 
 21,52         165 
 21,54         154 
 21,56         165 
 21,58         200 
 21,6          165 
 21,62         176 
 21,64         170 
 21,66         168 
 21,68         141 
 21,7          169 
 21,72         177 
 21,74         153 
 21,76         172 
 21,78         158 
 21,8          167 
 21,82         163 
 21,84         156 
 21,86         154 
 21,88         168 
 21,9          169 
 21,92         175 
 21,94         157 
 21,96         167 
 21,98         176 
 22            163 
 22,02         170 
 22,04         165 
 22,06         201 
 22,08         157 
 22,1          153 
 22,12         169 
 22,14         159 
 22,16         179 
 22,18         153 
 22,2          175 
 22,22         142 
 22,24         141 
 22,26         150 
 22,28         182 
 22,3          159 
 22,32         156 
 22,34         155 
 22,36         156 
 22,38         167 
 22,4          146 
 22,42         153 
 22,44         168 
 22,46         165 
 22,48         168 
 22,5          144 
 22,52         145 
 22,54         186 
 22,56         170 
 22,58         151 
 22,6          173 
 22,62         167 
 22,64         151 
 22,66         171 
 22,68         168 
 22,7          178 
 22,72         145 
 22,74         180 
 22,76         169 
 22,78         176 
 22,8          170 
 22,82         206 
 22,84         168 
 22,86         184 
 22,88         176 
 22,9          171 
 22,92         179 
 22,94         165 
 22,96         200 
 22,98         185 
 23            190 
 23,02         208 
 23,04         200 
 23,06         202 
 23,08         203 
 23,1          206 
 23,12         190 
 23,14         219 
 23,16         216 
 23,18         194 
 23,2          195 
 23,22         221 
 23,24         204 
 23,26         193 
 23,28         217 
 23,3          172 
 23,32         214 
 23,34         210 
 23,36         186 
 23,38         216 
 23,4          190 
 23,42         182 
 23,44         166 
 23,46         193 
 23,48         186 
 23,5          169 
 23,52         171 
 23,54         154 
 23,56         179 
 23,58         161 
 23,6          155 
 23,62         144 
 23,64         142 
 23,66         149 
 23,68         162 
 23,7          157 
 23,72         166 
 23,74         147 
 23,76         147 
 23,78         133 
 23,8          123 
 23,82         140 
 23,84         133 
 23,86         119 
 23,88         113 
 23,9          145 
 23,92         134 
 23,94         151 
 23,96         143 
 23,98         151 
 24            140 
 24,02         135 
 24,04         141 
 24,06         136 
 24,08         134 
 24,1          140 
 24,12         151 
 24,14         139 
 24,16         146 
 24,18         110 
 24,2          132 
 24,22         131 
 24,24         132 
 24,26         121 
 24,28         106 
 24,3          115 
 24,32         140 
 24,34         143 
 24,36         136 
 24,38         150 
 24,4          136 
 24,42         130 
 24,44         134 
 24,46         143 
 24,48         142 
 24,5          127 
 24,52         129 
 24,54         106 
 24,56         143 
 24,58         116 
 24,6          133 
 24,62         122 
 24,64         135 
 24,66         141 
 24,68         143 
 24,7          125 
 24,72         137 
 24,74         138 
 24,76         129 
 24,78         134 
 24,8          133 
 24,82         140 
 24,84         115 
 24,86         122 
 24,88         130 
 24,9          130 
 24,92         128 
 24,94         115 
 24,96         108 
 24,98         133 
 25            123 
 25,02         123 
 25,04         139 
 25,06         128 
 25,08         130 
 25,1          119 
 25,12         135 
 25,14         120 
 25,16         132 
 25,18         139 
 25,2          119 
 25,22         121 
 25,24         116 
 25,26         116 
 25,28         117 
 25,3          121 
 25,32         136 
 25,34         111 
 25,36         114 
 25,38         113 
 25,4          114 
 25,42         121 
 25,44         130 
 25,46         130 
 25,48         131 
 25,5          102 
 25,52         123 
 25,54         134 
 25,56         123 
 25,58         127 
 25,6          128 
 25,62         130 
 25,64         130 
 25,66         123 
 25,68         126 
 25,7          119 
 25,72         110 
 25,74         108 
 25,76         152 
 25,78         118 
 25,8          111 
 25,82         131 
 25,84         129 
 25,86         132 
 25,88         122 
 25,9          127 
 25,92         120 
 25,94         117 
 25,96         112 
 25,98         125 
 26            112 
 26,02         121 
 26,04         111 
 26,06         124 
 26,08         114 
 26,1          105 
 26,12         121 
 26,14         126 
 26,16         101 
 26,18         151 
 26,2          114 
 26,22         136 
 26,24         119 
 26,26         107 
 26,28         131 
 26,3          117 
 26,32         112 
 26,34         121 
 26,36         126 
 26,38         108 
 26,4          91 
 26,42         136 
 26,44         119 
 26,46         142 
 26,48         103 
 26,5          102 
 26,52         127 
 26,54         113 
 26,56         119 
 26,58         119 
 26,6          123 
 26,62         114 
 26,64         99 
 26,66         134 
 26,68         111 
 26,7          125 
 26,72         106 
 26,74         119 
 26,76         119 
 26,78         141 
 26,8          103 
 26,82         111 
 26,84         118 
 26,86         121 
 26,88         115 
 26,9          137 
 26,92         122 
 26,94         91 
 26,96         117 
 26,98         116 
 27            111 
 27,02         120 
 27,04         100 
 27,06         122 
 27,08         118 
 27,1          119 
 27,12         120 
 27,14         122 
 27,16         112 
 27,18         103 
 27,2          123 
 27,22         104 
 27,24         109 
 27,26         109 
 27,28         120 
 27,3          112 
 27,32         127 
 27,34         124 
 27,36         109 
 27,38         142 
 27,4          124 
 27,42         135 
 27,44         122 
 27,46         135 
 27,48         137 
 27,5          149 
 27,52         156 
 27,54         137 
 27,56         158 
 27,58         163 
 27,6          168 
 27,62         158 
 27,64         169 
 27,66         148 
 27,68         161 
 27,7          134 
 27,72         120 
 27,74         128 
 27,76         117 
 27,78         113 
 27,8          108 
 27,82         123 
 27,84         115 
 27,86         111 
 27,88         128 
 27,9          108 
 27,92         125 
 27,94         123 
 27,96         99 
 27,98         106 
 28            113 
 28,02         104 
 28,04         109 
 28,06         123 
 28,08         131 
 28,1          124 
 28,12         104 
 28,14         98 
 28,16         111 
 28,18         105 
 28,2          110 
 28,22         114 
 28,24         107 
 28,26         104 
 28,28         114 
 28,3          100 
 28,32         108 
 28,34         104 
 28,36         112 
 28,38         114 
 28,4          108 
 28,42         116 
 28,44         119 
 28,46         111 
 28,48         105 
 28,5          103 
 28,52         114 
 28,54         110 
 28,56         118 
 28,58         115 
 28,6          94 
 28,62         97 
 28,64         99 
 28,66         124 
 28,68         115 
 28,7          115 
 28,72         115 
 28,74         125 
 28,76         103 
 28,78         129 
 28,8          96 
 28,82         125 
 28,84         120 
 28,86         89 
 28,88         134 
 28,9          108 
 28,92         91 
 28,94         97 
 28,96         115 
 28,98         104 
 29            94 
 29,02         107 
 29,04         110 
 29,06         99 
 29,08         116 
 29,1          116 
 29,12         97 
 29,14         131 
 29,16         96 
 29,18         128 
 29,2          96 
 29,22         126 
 29,24         108 
 29,26         122 
 29,28         119 
 29,3          135 
 29,32         116 
 29,34         96 
 29,36         109 
 29,38         103 
 29,4          104 
 29,42         92 
 29,44         104 
 29,46         109 
 29,48         129 
 29,5          116 
 29,52         103 
 29,54         124 
 29,56         100 
 29,58         137 
 29,6          104 
 29,62         96 
 29,64         106 
 29,66         101 
 29,68         110 
 29,7          91 
 29,72         73 
 29,74         104 
 29,76         88 
 29,78         111 
 29,8          85 
 29,82         110 
 29,84         87 
 29,86         112 
 29,88         91 
 29,9          108 
 29,92         100 
 29,94         103 
 29,96         99 
 29,98         93 
 30            100 
 30,02         95 
 30,04         111 
 30,06         95 
 30,08         100 
 30,1          77 
 30,12         87 
 30,14         103 
 30,16         111 
 30,18         106 
 30,2          113 
 30,22         126 
 30,24         116 
 30,26         106 
 30,28         111 
 30,3          119 
 30,32         125 
 30,34         116 
 30,36         110 
 30,38         111 
 30,4          113 
 30,42         111 
 30,44         124 
 30,46         117 
 30,48         98 
 30,5          94 
 30,52         82 
 30,54         101 
 30,56         102 
 30,58         91 
 30,6          95 
 30,62         113 
 30,64         93 
 30,66         105 
 30,68         100 
 30,7          90 
 30,72         90 
 30,74         80 
 30,76         95 
 30,78         103 
 30,8          82 
 30,82         92 
 30,84         88 
 30,86         96 
 30,88         99 
 30,9          67 
 30,92         95 
 30,94         100 
 30,96         79 
 30,98         92 
 31            84 
 31,02         89 
 31,04         95 
 31,06         86 
 31,08         84 
 31,1          84 
 31,12         93 
 31,14         89 
 31,16         98 
 31,18         92 
 31,2          93 
 31,22         108 
 31,24         99 
 31,26         88 
 31,28         84 
 31,3          72 
 31,32         102 
 31,34         86 
 31,36         80 
 31,38         88 
 31,4          111 
 31,42         109 
 31,44         79 
 31,46         80 
 31,48         90 
 31,5          92 
 31,52         79 
 31,54         73 
 31,56         65 
 31,58         108 
 31,6          92 
 31,62         85 
 31,64         103 
 31,66         86 
 31,68         96 
 31,7          91 
 31,72         93 
 31,74         79 
 31,76         93 
 31,78         85 
 31,8          102 
 31,82         90 
 31,84         75 
 31,86         77 
 31,88         101 
 31,9          78 
 31,92         101 
 31,94         83 
 31,96         85 
 31,98         97 
 32            92 
 32,02         106 
 32,04         82 
 32,06         97 
 32,08         82 
 32,1          87 
 32,12         76 
 32,14         89 
 32,16         89 
 32,18         88 
 32,2          88 
 32,22         88 
 32,24         79 
 32,26         98 
 32,28         112 
 32,3          91 
 32,32         98 
 32,34         87 
 32,36         121 
 32,38         94 
 32,4          105 
 32,42         116 
 32,44         126 
 32,46         142 
 32,48         135 
 32,5          149 
 32,52         169 
 32,54         127 
 32,56         116 
 32,58         116 
 32,6          109 
 32,62         126 
 32,64         89 
 32,66         117 
 32,68         88 
 32,7          110 
 32,72         83 
 32,74         76 
 32,76         75 
 32,78         100 
 32,8          90 
 32,82         98 
 32,84         79 
 32,86         87 
 32,88         78 
 32,9          104 
 32,92         90 
 32,94         76 
 32,96         95 
 32,98         76 
 33            70 
 33,02         84 
 33,04         88 
 33,06         75 
 33,08         90 
 33,1          61 
 33,12         81 
 33,14         73 
 33,16         86 
 33,18         91 
 33,2          79 
 33,22         94 
 33,24         85 
 33,26         74 
 33,28         88 
 33,3          67 
 33,32         70 
 33,34         72 
 33,36         89 
 33,38         93 
 33,4          93 
 33,42         71 
 33,44         79 
 33,46         91 
 33,48         83 
 33,5          81 
 33,52         73 
 33,54         69 
 33,56         73 
 33,58         87 
 33,6          85 
 33,62         82 
 33,64         80 
 33,66         74 
 33,68         102 
 33,7          93 
 33,72         74 
 33,74         97 
 33,76         74 
 33,78         79 
 33,8          68 
 33,82         79 
 33,84         78 
 33,86         94 
 33,88         78 
 33,9          84 
 33,92         79 
 33,94         76 
 33,96         68 
 33,98         80 
 34            60 
 34,02         81 
 34,04         84 
 34,06         68 
 34,08         88 
 34,1          70 
 34,12         72 
 34,14         84 
 34,16         73 
 34,18         86 
 34,2          64 
 34,22         90 
 34,24         73 
 34,26         83 
 34,28         55 
 34,3          89 
 34,32         76 
 34,34         69 
 34,36         73 
 34,38         91 
 34,4          71 
 34,42         71 
 34,44         82 
 34,46         87 
 34,48         86 
 34,5          87 
 34,52         74 
 34,54         111 
 34,56         95 
 34,58         85 
 34,6          86 
 34,62         104 
 34,64         75 
 34,66         83 
 34,68         87 
 34,7          70 
 34,72         97 
 34,74         67 
 34,76         83 
 34,78         85 
 34,8          94 
 34,82         79 
 34,84         76 
 34,86         92 
 34,88         86 
 34,9          79 
 34,92         73 
 34,94         93 
 34,96         82 
 34,98         77 
 35            92 
 35,02         105 
 35,04         99 
 35,06         109 
 35,08         69 
 35,1          107 
 35,12         93 
 35,14         105 
 35,16         105 
 35,18         113 
 35,2          116 
 35,22         109 
 35,24         99 
 35,26         104 
 35,28         132 
 35,3          136 
 35,32         124 
 35,34         148 
 35,36         147 
 35,38         156 
 35,4          172 
 35,42         221 
 35,44         225 
 35,46         228 
 35,48         245 
 35,5          287 
 35,52         357 
 35,54         407 
 35,56         519 
 35,58         584 
 35,6          681 
 35,62         861 
 35,64         990 
 35,66         1083 
 35,68         1180 
 35,7          1241 
 35,72         1243 
 35,74         1268 
 35,76         1226 
 35,78         1027 
 35,8          875 
 35,82         838 
 35,84         575 
 35,86         534 
 35,88         364 
 35,9          266 
 35,92         236 
 35,94         180 
 35,96         152 
 35,98         139 
 36            132 
 36,02         124 
 36,04         115 
 36,06         130 
 36,08         108 
 36,1          124 
 36,12         110 
 36,14         114 
 36,16         112 
 36,18         102 
 36,2          97 
 36,22         106 
 36,24         109 
 36,26         98 
 36,28         107 
 36,3          112 
 36,32         83 
 36,34         99 
 36,36         89 
 36,38         82 
 36,4          70 
 36,42         90 
 36,44         89 
 36,46         80 
 36,48         81 
 36,5          78 
 36,52         71 
 36,54         69 
 36,56         90 
 36,58         77 
 36,6          93 
 36,62         79 
 36,64         78 
 36,66         66 
 36,68         80 
 36,7          94 
 36,72         80 
 36,74         72 
 36,76         88 
 36,78         72 
 36,8          72 
 36,82         86 
 36,84         58 
 36,86         74 
 36,88         80 
 36,9          80 
 36,92         67 
 36,94         89 
 36,96         70 
 36,98         51 
 37            74 
 37,02         81 
 37,04         62 
 37,06         78 
 37,08         86 
 37,1          80 
 37,12         80 
 37,14         88 
 37,16         81 
 37,18         83 
 37,2          97 
 37,22         97 
 37,24         95 
 37,26         113 
 37,28         127 
 37,3          126 
 37,32         96 
 37,34         133 
 37,36         96 
 37,38         146 
 37,4          128 
 37,42         119 
 37,44         121 
 37,46         102 
 37,48         94 
 37,5          93 
 37,52         71 
 37,54         73 
 37,56         82 
 37,58         72 
 37,6          62 
 37,62         68 
 37,64         86 
 37,66         67 
 37,68         56 
 37,7          74 
 37,72         78 
 37,74         67 
 37,76         74 
 37,78         68 
 37,8          80 
 37,82         67 
 37,84         65 
 37,86         69 
 37,88         83 
 37,9          74 
 37,92         60 
 37,94         85 
 37,96         70 
 37,98         80 
 38            69 
 38,02         64 
 38,04         65 
 38,06         78 
 38,08         62 
 38,1          81 
 38,12         80 
 38,14         76 
 38,16         78 
 38,18         61 
 38,2          78 
 38,22         76 
 38,24         81 
 38,26         75 
 38,28         77 
 38,3          85 
 38,32         78 
 38,34         74 
 38,36         65 
 38,38         61 
 38,4          61 
 38,42         86 
 38,44         65 
 38,46         69 
 38,48         78 
 38,5          63 
 38,52         67 
 38,54         58 
 38,56         80 
 38,58         70 
 38,6          64 
 38,62         88 
 38,64         60 
 38,66         73 
 38,68         66 
 38,7          87 
 38,72         77 
 38,74         71 
 38,76         76 
 38,78         75 
 38,8          79 
 38,82         68 
 38,84         86 
 38,86         78 
 38,88         81 
 38,9          92 
 38,92         88 
 38,94         84 
 38,96         80 
 38,98         90 
 39            79 
 39,02         83 
 39,04         87 
 39,06         82 
 39,08         74 
 39,1          85 
 39,12         82 
 39,14         69 
 39,16         84 
 39,18         90 
 39,2          92 
 39,22         77 
 39,24         97 
 39,26         76 
 39,28         85 
 39,3          91 
 39,32         81 
 39,34         81 
 39,36         95 
 39,38         95 
 39,4          83 
 39,42         84 
 39,44         82 
 39,46         86 
 39,48         70 
 39,5          100 
 39,52         82 
 39,54         76 
 39,56         87 
 39,58         76 
 39,6          70 
 39,62         85 
 39,64         86 
 39,66         79 
 39,68         73 
 39,7          85 
 39,72         94 
 39,74         99 
 39,76         89 
 39,78         108 
 39,8          80 
 39,82         79 
 39,84         85 
 39,86         60 
 39,88         99 
 39,9          93 
 39,92         79 
 39,94         94 
 39,96         83 
 39,98         76 
 40            87 
 40,02         99 
 40,04         97 
 40,06         87 
 40,08         100 
 40,1          95 
 40,12         96 
 40,14         85 
 40,16         105 
 40,18         106 
 40,2          81 
 40,22         83 
 40,24         82 
 40,26         84 
 40,28         75 
 40,3          70 
 40,32         87 
 40,34         68 
 40,36         93 
 40,38         90 
 40,4          64 
 40,42         82 
 40,44         85 
 40,46         79 
 40,48         70 
 40,5          68 
 40,52         71 
 40,54         89 
 40,56         70 
 40,58         73 
 40,6          74 
 40,62         71 
 40,64         71 
 40,66         80 
 40,68         78 
 40,7          73 
 40,72         69 
 40,74         72 
 40,76         72 
 40,78         85 
 40,8          76 
 40,82         75 
 40,84         72 
 40,86         78 
 40,88         83 
 40,9          74 
 40,92         72 
 40,94         90 
 40,96         73 
 40,98         69 
 41            77 
 41,02         71 
 41,04         62 
 41,06         73 
 41,08         83 
 41,1          59 
 41,12         81 
 41,14         90 
 41,16         74 
 41,18         84 
 41,2          87 
 41,22         87 
 41,24         87 
 41,26         88 
 41,28         76 
 41,3          93 
 41,32         74 
 41,34         86 
 41,36         74 
 41,38         90 
 41,4          107 
 41,42         85 
 41,44         89 
 41,46         82 
 41,48         80 
 41,5          91 
 41,52         69 
 41,54         99 
 41,56         80 
 41,58         82 
 41,6          65 
 41,62         74 
 41,64         89 
 41,66         90 
 41,68         68 
 41,7          64 
 41,72         88 
 41,74         83 
 41,76         77 
 41,78         84 
 41,8          89 
 41,82         61 
 41,84         63 
 41,86         78 
 41,88         73 
 41,9          103 
 41,92         92 
 41,94         73 
 41,96         95 
 41,98         86 
 42            78 
 42,02         80 
 42,04         69 
 42,06         66 
 42,08         80 
 42,1          83 
 42,12         91 
 42,14         88 
 42,16         88 
 42,18         80 
 42,2          65 
 42,22         92 
 42,24         81 
 42,26         80 
 42,28         88 
 42,3          90 
 42,32         85 
 42,34         82 
 42,36         100 
 42,38         77 
 42,4          90 
 42,42         108 
 42,44         108 
 42,46         89 
 42,48         79 
 42,5          103 
 42,52         77 
 42,54         124 
 42,56         104 
 42,58         111 
 42,6          99 
 42,62         97 
 42,64         116 
 42,66         125 
 42,68         116 
 42,7          145 
 42,72         124 
 42,74         116 
 42,76         102 
 42,78         120 
 42,8          115 
 42,82         147 
 42,84         141 
 42,86         148 
 42,88         145 
 42,9          169 
 42,92         155 
 42,94         168 
 42,96         186 
 42,98         197 
 43            204 
 43,02         238 
 43,04         249 
 43,06         235 
 43,08         261 
 43,1          304 
 43,12         364 
 43,14         366 
 43,16         486 
 43,18         467 
 43,2          558 
 43,22         719 
 43,24         792 
 43,26         967 
 43,28         1250 
 43,3          1400 
 43,32         1673 
 43,34         1791 
 43,36         2057 
 43,38         2158 
 43,4          2145 
 43,42         2116 
 43,44         2093 
 43,46         1856 
 43,48         1633 
 43,5          1304 
 43,52         1070 
 43,54         922 
 43,56         722 
 43,58         574 
 43,6          416 
 43,62         319 
 43,64         279 
 43,66         246 
 43,68         186 
 43,7          183 
 43,72         157 
 43,74         155 
 43,76         137 
 43,78         123 
 43,8          130 
 43,82         116 
 43,84         107 
 43,86         109 
 43,88         91 
 43,9          112 
 43,92         113 
 43,94         92 
 43,96         111 
 43,98         86 
 44            113 
 44,02         97 
 44,04         80 
 44,06         119 
 44,08         105 
 44,1          100 
 44,12         76 
 44,14         78 
 44,16         78 
 44,18         80 
 44,2          92 
 44,22         77 
 44,24         66 
 44,26         62 
 44,28         83 
 44,3          94 
 44,32         60 
 44,34         96 
 44,36         65 
 44,38         64 
 44,4          54 
 44,42         84 
 44,44         74 
 44,46         65 
 44,48         68 
 44,5          66 
 44,52         61 
 44,54         68 
 44,56         62 
 44,58         69 
 44,6          56 
 44,62         70 
 44,64         81 
 44,66         72 
 44,68         64 
 44,7          78 
 44,72         55 
 44,74         67 
 44,76         74 
 44,78         74 
 44,8          67 
 44,82         59 
 44,84         68 
 44,86         62 
 44,88         70 
 44,9          81 
 44,92         61 
 44,94         78 
 44,96         77 
 44,98         71 
 45            74 
 45,02         56 
 45,04         71 
 45,06         74 
 45,08         57 
 45,1          76 
 45,12         79 
 45,14         76 
 45,16         66 
 45,18         52 
 45,2          75 
 45,22         61 
 45,24         72 
 45,26         58 
 45,28         52 
 45,3          70 
 45,32         60 
 45,34         54 
 45,36         68 
 45,38         50 
 45,4          54 
 45,42         78 
 45,44         75 
 45,46         68 
 45,48         65 
 45,5          62 
 45,52         60 
 45,54         62 
 45,56         69 
 45,58         76 
 45,6          80 
 45,62         66 
 45,64         57 
 45,66         70 
 45,68         62 
 45,7          58 
 45,72         60 
 45,74         72 
 45,76         67 
 45,78         63 
 45,8          57 
 45,82         70 
 45,84         59 
 45,86         66 
 45,88         60 
 45,9          84 
 45,92         79 
 45,94         71 
 45,96         69 
 45,98         66 
 46            82 
 46,02         62 
 46,04         57 
 46,06         61 
 46,08         69 
 46,1          59 
 46,12         75 
 46,14         65 
 46,16         56 
 46,18         75 
 46,2          71 
 46,22         60 
 46,24         67 
 46,26         69 
 46,28         89 
 46,3          72 
 46,32         72 
 46,34         64 
 46,36         70 
 46,38         70 
 46,4          81 
 46,42         93 
 46,44         83 
 46,46         86 
 46,48         87 
 46,5          84 
 46,52         79 
 46,54         87 
 46,56         82 
 46,58         97 
 46,6          73 
 46,62         98 
 46,64         99 
 46,66         105 
 46,68         87 
 46,7          103 
 46,72         93 
 46,74         88 
 46,76         115 
 46,78         113 
 46,8          100 
 46,82         101 
 46,84         117 
 46,86         98 
 46,88         94 
 46,9          81 
 46,92         94 
 46,94         74 
 46,96         87 
 46,98         93 
 47            85 
 47,02         86 
 47,04         74 
 47,06         100 
 47,08         76 
 47,1          89 
 47,12         83 
 47,14         77 
 47,16         84 
 47,18         88 
 47,2          101 
 47,22         93 
 47,24         105 
 47,26         107 
 47,28         100 
 47,3          108 
 47,32         129 
 47,34         136 
 47,36         160 
 47,38         172 
 47,4          181 
 47,42         220 
 47,44         244 
 47,46         232 
 47,48         275 
 47,5          290 
 47,52         279 
 47,54         265 
 47,56         253 
 47,58         232 
 47,6          211 
 47,62         209 
 47,64         158 
 47,66         150 
 47,68         128 
 47,7          119 
 47,72         83 
 47,74         98 
 47,76         76 
 47,78         75 
 47,8          72 
 47,82         57 
 47,84         82 
 47,86         68 
 47,88         81 
 47,9          79 
 47,92         77 
 47,94         67 
 47,96         62 
 47,98         79 
 48            65 
 48,02         84 
 48,04         71 
 48,06         74 
 48,08         83 
 48,1          67 
 48,12         80 
 48,14         78 
 48,16         76 
 48,18         89 
 48,2          90 
 48,22         73 
 48,24         84 
 48,26         71 
 48,28         77 
 48,3          77 
 48,32         70 
 48,34         66 
 48,36         77 
 48,38         68 
 48,4          61 
 48,42         80 
 48,44         61 
 48,46         73 
 48,48         64 
 48,5          74 
 48,52         63 
 48,54         68 
 48,56         80 
 48,58         71 
 48,6          76 
 48,62         77 
 48,64         63 
 48,66         66 
 48,68         50 
 48,7          62 
 48,72         57 
 48,74         61 
 48,76         69 
 48,78         64 
 48,8          55 
 48,82         53 
 48,84         57 
 48,86         66 
 48,88         56 
 48,9          64 
 48,92         59 
 48,94         60 
 48,96         65 
 48,98         39 
 49            56 
 49,02         65 
 49,04         63 
 49,06         62 
 49,08         60 
 49,1          51 
 49,12         56 
 49,14         60 
 49,16         55 
 49,18         65 
 49,2          62 
 49,22         47 
 49,24         42 
 49,26         62 
 49,28         51 
 49,3          65 
 49,32         57 
 49,34         55 
 49,36         62 
 49,38         55 
 49,4          54 
 49,42         56 
 49,44         60 
 49,46         43 
 49,48         79 
 49,5          51 
 49,52         41 
 49,54         57 
 49,56         48 
 49,58         67 
 49,6          62 
 49,62         60 
 49,64         51 
 49,66         58 
 49,68         68 
 49,7          79 
 49,72         48 
 49,74         63 
 49,76         71 
 49,78         60 
 49,8          72 
 49,82         56 
 49,84         60 
 49,86         51 
 49,88         67 
 49,9          58 
 49,92         70 
 49,94         62 
 49,96         57 
 49,98         57 
 50            69 
 50,02         50 
 50,04         73 
 50,06         53 
 50,08         61 
 50,1          59 
 50,12         64 
 50,14         59 
 50,16         44 
 50,18         53 
 50,2          67 
 50,22         57 
 50,24         58 
 50,26         62 
 50,28         52 
 50,3          54 
 50,32         57 
 50,34         58 
 50,36         53 
 50,38         57 
 50,4          51 
 50,42         67 
 50,44         51 
 50,46         52 
 50,48         67 
 50,5          72 
 50,52         54 
 50,54         54 
 50,56         51 
 50,58         58 
 50,6          71 
 50,62         59 
 50,64         62 
 50,66         55 
 50,68         59 
 50,7          68 
 50,72         64 
 50,74         56 
 50,76         55 
 50,78         60 
 50,8          61 
 50,82         69 
 50,84         63 
 50,86         61 
 50,88         51 
 50,9          60 
 50,92         71 
 50,94         57 
 50,96         43 
 50,98         40 
 51            55 
 51,02         73 
 51,04         63 
 51,06         61 
 51,08         73 
 51,1          54 
 51,12         69 
 51,14         55 
 51,16         53 
 51,18         53 
 51,2          62 
 51,22         68 
 51,24         63 
 51,26         52 
 51,28         73 
 51,3          62 
 51,32         63 
 51,34         55 
 51,36         67 
 51,38         57 
 51,4          55 
 51,42         71 
 51,44         72 
 51,46         56 
 51,48         59 
 51,5          65 
 51,52         64 
 51,54         58 
 51,56         62 
 51,58         55 
 51,6          70 
 51,62         62 
 51,64         56 
 51,66         57 
 51,68         56 
 51,7          56 
 51,72         67 
 51,74         56 
 51,76         56 
 51,78         38 
 51,8          68 
 51,82         52 
 51,84         58 
 51,86         64 
 51,88         60 
 51,9          74 
 51,92         71 
 51,94         54 
 51,96         61 
 51,98         44 
 52            60 
 52,02         59 
 52,04         64 
 52,06         63 
 52,08         61 
 52,1          57 
 52,12         67 
 52,14         77 
 52,16         70 
 52,18         64 
 52,2          52 
 52,22         54 
 52,24         58 
 52,26         53 
 52,28         69 
 52,3          58 
 52,32         53 
 52,34         62 
 52,36         55 
 52,38         51 
 52,4          65 
 52,42         54 
 52,44         61 
 52,46         62 
 52,48         66 
 52,5          64 
 52,52         60 
 52,54         66 
 52,56         63 
 52,58         74 
 52,6          60 
 52,62         66 
 52,64         63 
 52,66         62 
 52,68         72 
 52,7          48 
 52,72         73 
 52,74         63 
 52,76         48 
 52,78         71 
 52,8          65 
 52,82         48 
 52,84         65 
 52,86         71 
 52,88         64 
 52,9          72 
 52,92         58 
 52,94         51 
 52,96         54 
 52,98         56 
 53            66 
 53,02         58 
 53,04         53 
 53,06         59 
 53,08         58 
 53,1          65 
 53,12         49 
 53,14         66 
 53,16         53 
 53,18         59 
 53,2          69 
 53,22         61 
 53,24         52 
 53,26         59 
 53,28         64 
 53,3          62 
 53,32         61 
 53,34         79 
 53,36         58 
 53,38         73 
 53,4          68 
 53,42         60 
 53,44         49 
 53,46         55 
 53,48         50 
 53,5          52 
 53,52         72 
 53,54         60 
 53,56         65 
 53,58         66 
 53,6          73 
 53,62         60 
 53,64         54 
 53,66         72 
 53,68         50 
 53,7          61 
 53,72         61 
 53,74         62 
 53,76         67 
 53,78         61 
 53,8          83 
 53,82         83 
 53,84         73 
 53,86         63 
 53,88         63 
 53,9          63 
 53,92         72 
 53,94         72 
 53,96         77 
 53,98         60 
 54            72 
 54,02         71 
 54,04         72 
 54,06         49 
 54,08         78 
 54,1          59 
 54,12         72 
 54,14         60 
 54,16         67 
 54,18         68 
 54,2          62 
 54,22         62 
 54,24         71 
 54,26         83 
 54,28         73 
 54,3          66 
 54,32         73 
 54,34         77 
 54,36         79 
 54,38         71 
 54,4          84 
 54,42         109 
 54,44         96 
 54,46         91 
 54,48         94 
 54,5          95 
 54,52         108 
 54,54         82 
 54,56         104 
 54,58         89 
 54,6          96 
 54,62         89 
 54,64         73 
 54,66         80 
 54,68         93 
 54,7          73 
 54,72         66 
 54,74         88 
 54,76         67 
 54,78         64 
 54,8          57 
 54,82         45 
 54,84         60 
 54,86         65 
 54,88         51 
 54,9          71 
 54,92         69 
 54,94         68 
 54,96         62 
 54,98         69 
 55            54 
 55,02         57 
 55,04         64 
 55,06         50 
 55,08         45 
 55,1          57 
 55,12         51 
 55,14         45 
 55,16         44 
 55,18         52 
 55,2          53 
 55,22         50 
 55,24         74 
 55,26         70 
 55,28         68 
 55,3          60 
 55,32         46 
 55,34         61 
 55,36         77 
 55,38         56 
 55,4          54 
 55,42         63 
 55,44         76 
 55,46         64 
 55,48         53 
 55,5          68 
 55,52         71 
 55,54         55 
 55,56         51 
 55,58         64 
 55,6          60 
 55,62         49 
 55,64         56 
 55,66         44 
 55,68         67 
 55,7          60 
 55,72         65 
 55,74         57 
 55,76         57 
 55,78         63 
 55,8          70 
 55,82         41 
 55,84         59 
 55,86         56 
 55,88         78 
 55,9          63 
 55,92         73 
 55,94         59 
 55,96         58 
 55,98         67 
 56            69 
 56,02         63 
 56,04         63 
 56,06         47 
 56,08         75 
 56,1          74 
 56,12         62 
 56,14         73 
 56,16         78 
 56,18         70 
 56,2          73 
 56,22         70 
 56,24         61 
 56,26         63 
 56,28         69 
 56,3          70 
 56,32         60 
 56,34         69 
 56,36         77 
 56,38         53 
 56,4          75 
 56,42         70 
 56,44         61 
 56,46         70 
 56,48         83 
 56,5          64 
 56,52         66 
 56,54         71 
 56,56         73 
 56,58         69 
 56,6          77 
 56,62         82 
 56,64         77 
 56,66         89 
 56,68         72 
 56,7          77 
 56,72         88 
 56,74         79 
 56,76         84 
 56,78         91 
 56,8          89 
 56,82         74 
 56,84         111 
 56,86         102 
 56,88         104 
 56,9          95 
 56,92         102 
 56,94         98 
 56,96         121 
 56,98         141 
 57            120 
 57,02         124 
 57,04         131 
 57,06         149 
 57,08         163 
 57,1          153 
 57,12         164 
 57,14         238 
 57,16         238 
 57,18         253 
 57,2          314 
 57,22         414 
 57,24         408 
 57,26         554 
 57,28         658 
 57,3          675 
 57,32         763 
 57,34         736 
 57,36         744 
 57,38         735 
 57,4          766 
 57,42         642 
 57,44         592 
 57,46         484 
 57,48         516 
 57,5          449 
 57,52         384 
 57,54         373 
 57,56         295 
 57,58         220 
 57,6          196 
 57,62         161 
 57,64         139 
 57,66         119 
 57,68         114 
 57,7          76 
 57,72         82 
 57,74         119 
 57,76         92 
 57,78         87 
 57,8          80 
 57,82         79 
 57,84         75 
 57,86         69 
 57,88         99 
 57,9          77 
 57,92         72 
 57,94         81 
 57,96         90 
 57,98         81 
 58            88 
 58,02         79 
 58,04         88 
 58,06         98 
 58,08         99 
 58,1          109 
 58,12         86 
 58,14         86 
 58,16         115 
 58,18         101 
 58,2          93 
 58,22         98 
 58,24         98 
 58,26         109 
 58,28         79 
 58,3          95 
 58,32         81 
 58,34         92 
 58,36         108 
 58,38         85 
 58,4          70 
 58,42         70 
 58,44         86 
 58,46         79 
 58,48         80 
 58,5          66 
 58,52         68 
 58,54         66 
 58,56         61 
 58,58         82 
 58,6          59 
 58,62         55 
 58,64         70 
 58,66         63 
 58,68         70 
 58,7          63 
 58,72         66 
 58,74         48 
 58,76         43 
 58,78         54 
 58,8          60 
 58,82         64 
 58,84         72 
 58,86         63 
 58,88         66 
 58,9          50 
 58,92         59 
 58,94         43 
 58,96         50 
 58,98         66 
 59            53 
 59,02         53 
 59,04         49 
 59,06         53 
 59,08         59 
 59,1          61 
 59,12         66 
 59,14         58 
 59,16         59 
 59,18         57 
 59,2          68 
 59,22         52 
 59,24         52 
 59,26         49 
 59,28         58 
 59,3          64 
 59,32         66 
 59,34         72 
 59,36         67 
 59,38         47 
 59,4          69 
 59,42         53 
 59,44         56 
 59,46         57 
 59,48         50 
 59,5          61 
 59,52         54 
 59,54         69 
 59,56         61 
 59,58         67 
 59,6          69 
 59,62         51 
 59,64         61 
 59,66         60 
 59,68         52 
 59,7          48 
 59,72         62 
 59,74         69 
 59,76         65 
 59,78         65 
 59,8          55 
 59,82         56 
 59,84         71 
 59,86         55 
 59,88         67 
 59,9          45 
 59,92         59 
 59,94         56 
 59,96         80 
 59,98         58 
 60            56 
 60,02         66 
 60,04         48 
 60,06         64 
 60,08         55 
 60,1          61 
 60,12         57 
 60,14         57 
 60,16         60 
 60,18         49 
 60,2          54 
 60,22         40 
 60,24         53 
 60,26         65 
 60,28         66 
 60,3          54 
 60,32         58 
 60,34         65 
 60,36         55 
 60,38         75 
 60,4          63 
 60,42         66 
 60,44         57 
 60,46         65 
 60,48         50 
 60,5          49 
 60,52         64 
 60,54         47 
 60,56         60 
 60,58         58 
 60,6          65 
 60,62         47 
 60,64         54 
 60,66         53 
 60,68         55 
 60,7          72 
 60,72         57 
 60,74         60 
 60,76         60 
 60,78         58 
 60,8          53 
 60,82         67 
 60,84         65 
 60,86         57 
 60,88         70 
 60,9          82 
 60,92         64 
 60,94         55 
 60,96         52 
 60,98         67 
 61            58 
 61,02         49 
 61,04         54 
 61,06         66 
 61,08         65 
 61,1          64 
 61,12         45 
 61,14         68 
 61,16         67 
 61,18         59 
 61,2          63 
 61,22         61 
 61,24         72 
 61,26         51 
 61,28         57 
 61,3          57 
 61,32         65 
 61,34         69 
 61,36         53 
 61,38         61 
 61,4          66 
 61,42         62 
 61,44         61 
 61,46         56 
 61,48         49 
 61,5          59 
 61,52         66 
 61,54         59 
 61,56         73 
 61,58         62 
 61,6          63 
 61,62         54 
 61,64         66 
 61,66         80 
 61,68         55 
 61,7          57 
 61,72         58 
 61,74         66 
 61,76         66 
 61,78         60 
 61,8          57 
 61,82         66 
 61,84         75 
 61,86         66 
 61,88         73 
 61,9          76 
 61,92         53 
 61,94         67 
 61,96         71 
 61,98         68 
 62            68 
 62,02         72 
 62,04         59 
 62,06         61 
 62,08         61 
 62,1          80 
 62,12         78 
 62,14         71 
 62,16         69 
 62,18         101 
 62,2          80 
 62,22         84 
 62,24         65 
 62,26         81 
 62,28         85 
 62,3          96 
 62,32         79 
 62,34         81 
 62,36         104 
 62,38         76 
 62,4          87 
 62,42         78 
 62,44         92 
 62,46         93 
 62,48         102 
 62,5          109 
 62,52         81 
 62,54         100 
 62,56         121 
 62,58         133 
 62,6          152 
 62,62         156 
 62,64         162 
 62,66         183 
 62,68         171 
 62,7          209 
 62,72         248 
 62,74         272 
 62,76         331 
 62,78         341 
 62,8          384 
 62,82         513 
 62,84         668 
 62,86         847 
 62,88         992 
 62,9          1161 
 62,92         1250 
 62,94         1392 
 62,96         1351 
 62,98         1320 
 63            1217 
 63,02         1125 
 63,04         968 
 63,06         1013 
 63,08         933 
 63,1          854 
 63,12         779 
 63,14         784 
 63,16         631 
 63,18         585 
 63,2          494 
 63,22         414 
 63,24         279 
 63,26         222 
 63,28         178 
 63,3          148 
 63,32         137 
 63,34         113 
 63,36         101 
 63,38         131 
 63,4          95 
 63,42         94 
 63,44         93 
 63,46         100 
 63,48         95 
 63,5          87 
 63,52         89 
 63,54         90 
 63,56         88 
 63,58         72 
 63,6          76 
 63,62         87 
 63,64         87 
 63,66         87 
 63,68         76 
 63,7          66 
 63,72         79 
 63,74         81 
 63,76         73 
 63,78         71 
 63,8          83 
 63,82         71 
 63,84         78 
 63,86         77 
 63,88         81 
 63,9          71 
 63,92         71 
 63,94         63 
 63,96         68 
 63,98         81 
 64            70 
 64,02         55 
 64,04         66 
 64,06         79 
 64,08         87 
 64,1          70 
 64,12         57 
 64,14         58 
 64,16         61 
 64,18         74 
 64,2          67 
 64,22         84 
 64,24         57 
 64,26         60 
 64,28         74 
 64,3          68 
 64,32         71 
 64,34         74 
 64,36         60 
 64,38         63 
 64,4          90 
 64,42         62 
 64,44         58 
 64,46         72 
 64,48         69 
 64,5          72 
 64,52         69 
 64,54         64 
 64,56         66 
 64,58         71 
 64,6          69 
 64,62         59 
 64,64         66 
 64,66         64 
 64,68         72 
 64,7          63 
 64,72         75 
 64,74         68 
 64,76         56 
 64,78         71 
 64,8          70 
 64,82         70 
 64,84         64 
 64,86         62 
 64,88         66 
 64,9          65 
 64,92         61 
 64,94         66 
 64,96         54 
 64,98         55 
 65            58 
 65,02         56 
 65,04         77 
 65,06         57 
 65,08         61 
 65,1          58 
 65,12         77 
 65,14         55 
 65,16         57 
 65,18         54 
 65,2          61 
 65,22         56 
 65,24         60 
 65,26         55 
 65,28         60 
 65,3          61 
 65,32         58 
 65,34         58 
 65,36         66 
 65,38         49 
 65,4          64 
 65,42         48 
 65,44         62 
 65,46         62 
 65,48         68 
 65,5          70 
 65,52         76 
 65,54         67 
 65,56         59 
 65,58         65 
 65,6          71 
 65,62         79 
 65,64         71 
 65,66         70 
 65,68         79 
 65,7          77 
 65,72         74 
 65,74         91 
 65,76         60 
 65,78         80 
 65,8          97 
 65,82         91 
 65,84         90 
 65,86         102 
 65,88         106 
 65,9          103 
 65,92         109 
 65,94         105 
 65,96         128 
 65,98         128 
 66            137 
 66,02         152 
 66,04         212 
 66,06         212 
 66,08         265 
 66,1          308 
 66,12         364 
 66,14         439 
 66,16         432 
 66,18         470 
 66,2          458 
 66,22         465 
 66,24         472 
 66,26         381 
 66,28         401 
 66,3          342 
 66,32         332 
 66,34         334 
 66,36         321 
 66,38         278 
 66,4          257 
 66,42         248 
 66,44         214 
 66,46         187 
 66,48         131 
 66,5          127 
 66,52         103 
 66,54         84 
 66,56         81 
 66,58         68 
 66,6          78 
 66,62         50 
 66,64         71 
 66,66         69 
 66,68         60 
 66,7          71 
 66,72         60 
 66,74         47 
 66,76         56 
 66,78         64 
 66,8          80 
 66,82         63 
 66,84         77 
 66,86         64 
 66,88         67 
 66,9          77 
 66,92         70 
 66,94         47 
 66,96         71 
 66,98         57 
 67            77 
 67,02         61 
 67,04         57 
 67,06         65 
 67,08         45 
 67,1          63 
 67,12         60 
 67,14         65 
 67,16         63 
 67,18         56 
 67,2          58 
 67,22         54 
 67,24         52 
 67,26         58 
 67,28         60 
 67,3          50 
 67,32         46 
 67,34         54 
 67,36         74 
 67,38         57 
 67,4          62 
 67,42         52 
 67,44         73 
 67,46         66 
 67,48         62 
 67,5          60 
 67,52         47 
 67,54         48 
 67,56         64 
 67,58         47 
 67,6          61 
 67,62         68 
 67,64         59 
 67,66         58 
 67,68         52 
 67,7          47 
 67,72         45 
 67,74         57 
 67,76         58 
 67,78         58 
 67,8          47 
 67,82         69 
 67,84         63 
 67,86         61 
 67,88         73 
 67,9          51 
 67,92         63 
 67,94         62 
 67,96         48 
 67,98         60 
 68            59 
 68,02         58 
 68,04         56 
 68,06         63 
 68,08         76 
 68,1          58 
 68,12         68 
 68,14         54 
 68,16         77 
 68,18         60 
 68,2          81 
 68,22         74 
 68,24         74 
 68,26         66 
 68,28         67 
 68,3          94 
 68,32         74 
 68,34         77 
 68,36         89 
 68,38         95 
 68,4          69 
 68,42         83 
 68,44         76 
 68,46         80 
 68,48         68 
 68,5          77 
 68,52         54 
 68,54         58 
 68,56         48 
 68,58         66 
 68,6          68 
 68,62         42 
 68,64         58 
 68,66         62 
 68,68         57 
 68,7          51 
 68,72         71 
 68,74         54 
 68,76         46 
 68,78         54 
 68,8          53 
 68,82         60 
 68,84         44 
 68,86         55 
 68,88         50 
 68,9          56 
 68,92         58 
 68,94         51 
 68,96         51 
 68,98         61 
 69            64 
 69,02         50 
 69,04         70 
 69,06         59 
 69,08         49 
 69,1          59 
 69,12         69 
 69,14         72 
 69,16         71 
 69,18         58 
 69,2          49 
 69,22         75 
 69,24         64 
 69,26         78 
 69,28         75 
 69,3          58 
 69,32         63 
 69,34         76 
 69,36         51 
 69,38         80 
 69,4          85 
 69,42         62 
 69,44         60 
 69,46         53 
 69,48         74 
 69,5          61 
 69,52         58 
 69,54         57 
 69,56         62 
 69,58         61 
 69,6          71 
 69,62         58 
 69,64         58 
 69,66         57 
 69,68         55 
 69,7          57 
 69,72         50 
 69,74         49 
 69,76         46 
 69,78         61 
 69,8          48 
 69,82         52 
 69,84         61 
 69,86         51 
 69,88         50 
 69,9          65 
 69,92         57 
 69,94         53 
 69,96         58 
 69,98         61 
 70            57 
 70,02         58 
 70,04         52 
 70,06         45 
 70,08         62 
 70,1          77 
 70,12         49 
 70,14         58 
 70,16         67 
 70,18         55 
 70,2          52 
 70,22         64 
 70,24         68 
 70,26         56 
 70,28         54 
 70,3          49 
 70,32         63 
 70,34         48 
 70,36         57 
 70,38         62 
 70,4          56 
 70,42         54 
 70,44         58 
 70,46         60 
 70,48         56 
 70,5          51 
 70,52         46 
 70,54         61 
 70,56         62 
 70,58         54 
 70,6          61 
 70,62         52 
 70,64         49 
 70,66         55 
 70,68         48 
 70,7          46 
 70,72         41 
 70,74         41 
 70,76         41 
 70,78         49 
 70,8          56 
 70,82         51 
 70,84         42 
 70,86         58 
 70,88         51 
 70,9          41 
 70,92         45 
 70,94         56 
 70,96         43 
 70,98         46 
 71            50 
 71,02         52 
 71,04         54 
 71,06         44 
 71,08         46 
 71,1          45 
 71,12         41 
 71,14         40 
 71,16         54 
 71,18         58 
 71,2          54 
 71,22         40 
 71,24         44 
 71,26         42 
 71,28         52 
 71,3          57 
 71,32         46 
 71,34         49 
 71,36         52 
 71,38         50 
 71,4          45 
 71,42         48 
 71,44         63 
 71,46         55 
 71,48         56 
 71,5          45 
 71,52         53 
 71,54         52 
 71,56         54 
 71,58         62 
 71,6          61 
 71,62         59 
 71,64         49 
 71,66         54 
 71,68         57 
 71,7          70 
 71,72         54 
 71,74         49 
 71,76         47 
 71,78         47 
 71,8          53 
 71,82         42 
 71,84         50 
 71,86         53 
 71,88         46 
 71,9          51 
 71,92         50 
 71,94         50 
 71,96         52 
 71,98         46 
 72            43 
 72,02         36 
 72,04         68 
 72,06         49 
 72,08         44 
 72,1          52 
 72,12         58 
 72,14         56 
 72,16         45 
 72,18         50 
 72,2          52 
 72,22         50 
 72,24         51 
 72,26         44 
 72,28         51 
 72,3          61 
 72,32         40 
 72,34         45 
 72,36         64 
 72,38         48 
 72,4          61 
 72,42         47 
 72,44         45 
 72,46         60 
 72,48         60 
 72,5          52 
 72,52         62 
 72,54         53 
 72,56         52 
 72,58         48 
 72,6          66 
 72,62         62 
 72,64         50 
 72,66         68 
 72,68         51 
 72,7          48 
 72,72         61 
 72,74         44 
 72,76         50 
 72,78         47 
 72,8          56 
 72,82         56 
 72,84         57 
 72,86         51 
 72,88         48 
 72,9          58 
 72,92         52 
 72,94         52 
 72,96         59 
 72,98         50 
 73            49 
 73,02         57 
 73,04         50 
 73,06         47 
 73,08         54 
 73,1          51 
 73,12         59 
 73,14         55 
 73,16         60 
 73,18         56 
 73,2          53 
 73,22         56 
 73,24         55 
 73,26         44 
 73,28         44 
 73,3          58 
 73,32         55 
 73,34         48 
 73,36         40 
 73,38         59 
 73,4          61 
 73,42         52 
 73,44         59 
 73,46         48 
 73,48         48 
 73,5          52 
 73,52         59 
 73,54         69 
 73,56         62 
 73,58         52 
 73,6          69 
 73,62         48 
 73,64         57 
 73,66         51 
 73,68         53 
 73,7          41 
 73,72         54 
 73,74         63 
 73,76         48 
 73,78         53 
 73,8          59 
 73,82         55 
 73,84         55 
 73,86         57 
 73,88         63 
 73,9          56 
 73,92         47 
 73,93999      66 
 73,96         59 
 73,98         65 
 74            55 
 74,02         64 
 74,04         44 
 74,06         43 
 74,08         70 
 74,1          67 
 74,12         64 
 74,14         69 
 74,16         52 
 74,18         70 
 74,2          72 
 74,22         88 
 74,24         82 
 74,26         70 
 74,28         71 
 74,3          92 
 74,32         102 
 74,34         107 
 74,36         141 
 74,38         135 
 74,4          171 
 74,42         187 
 74,43999      161 
 74,46         200 
 74,48         185 
 74,5          168 
 74,52         164 
 74,54         141 
 74,56         143 
 74,58         141 
 74,6          137 
 74,62         144 
 74,64         145 
 74,66         133 
 74,68         133 
 74,7          136 
 74,72         111 
 74,74         101 
 74,76         84 
 74,78         74 
 74,8          81 
 74,82         70 
 74,84         72 
 74,86         73 
 74,88         54 
 74,9          65 
 74,92         68 
 74,93999      73 
 74,96         60 
 74,98         59 
 75            67 
