EC-Lab ASCII FILE
Nb header lines : 3                           
mode	ox/red	error	control changes	Ns changes	counter inc.	Ns	time/s	control/V/mA	Ewe/V	dq/mA.h	<I>/mA	P/W	(Q-Qo)/mA.h	x	Capacity/mA.h
1	0	0	1	1	0	1	128164,15	-0,200000003	3,35372949	0	0	0	0	0	0
1	0	0	1	0	0	1	128174,15	-0,200000003	2,16427946	-0,00055205328378554413	-0,19873525483968736	0,000430118642	-0,00055205328378554413	2,0597850261572832E-005	0,00055205328378554413
1	0	0	1	0	0	1	128184,15	-0,200000003	2,01633143	-0,00055479272582547539	-0,19972143448791734	0,000402704609	-0,0011068460096110195	4,1297912788874496E-005	0,0011068460096110195
1	0	0	1	0	0	1	128194,15	-0,200000003	1,96965003	-0,00055479752235445709	-0,19972316073457053	0,000393384718	-0,0016616435319654765	6,1998154281121459E-005	0,0016616435319654765
1	0	0	1	0	0	1	128204,15	-0,200000003	1,94738543	-0,00055479032872782816	-0,19972057080581494	0,000388932938	-0,0022164338606933046	8,2698127369486976E-005	0,0022164338606933046
1	0	0	1	0	0	1	128214,15	-0,200000003	1,94157648	-0,00055479551449418074	-0,19972243764480326	0,000387776381	-0,0027712293751874854	0,00010339829394576742	0,0027712293751874854
1	0	0	1	0	0	1	128224,15	-0,200000003	1,94325256	-0,00055479253046959642	-0,1997213641332905	0,000388109067	-0,0033260219056570816	0,00012409834918407858	0,0033260219056570816
1	0	0	1	0	0	1	128234,15	-0,200000003	1,93317723	-0,00055479926259401773	-0,19972378767808986	0,000386101485	-0,0038808211682510995	0,00014479865560700333	0,0038808211682510995
1	0	0	1	0	0	1	128244,15	-0,200000003	1,93673885	-0,00055479870191133677	-0,19972358557590864	0,000386812433	-0,0044356198701624358	0,00016549894111010342	0,0044356198701624358
1	0	0	1	0	0	1	128254,15	-0,200000003	1,93508184	-0,00055479273009879718	-0,19972143528227718	0,000386477332	-0,0049904126002612333	0,00018619900379684848	0,0049904126002612333
1	0	0	1	0	0	1	128264,15	-0,200000003	1,93180597	-0,00055479801018039386	-0,19972333607408227	0,000385826745	-0,0055452106104416282	0,00020689926349053706	0,0055452106104416282
1	0	0	1	0	0	1	128274,15	-0,200000003	1,92666364	-0,00055479954158845869	-0,19972388787229904	0,000384800747	-0,0061000101520300864	0,00022759958032311952	0,0061000101520300864
1	0	0	1	0	0	1	128284,15	-0,200000003	1,92154026	-0,00055479830780708128	-0,19972344395693504	0,000383776642	-0,0066548084598371686	0,00024829985112165997	0,0066548084598371686
1	0	0	1	0	0	1	128294,15	-0,200000003	1,91944528	-0,00055479772215005427	-0,19972323308272099	0,000383357808	-0,007209606181987223	0,00026900010006854928	0,007209606181987223
1	0	0	1	0	0	1	128304,15	-0,200000003	1,91394103	-0,00055479659757349229	-0,1997228275456489	0,000382257713	-0,0077644027795607142	0,0002897003070559751	0,0077644027795607142
1	0	0	1	0	0	1	128314,15	-0,200000003	1,90849388	-0,00055479887333843443	-0,1997236468048352	0,000381171354	-0,0083192016528991501	0,00031040059895525069	0,0083192016528991501
1	0	0	1	0	0	1	128324,15	-0,200000003	1,90531325	-0,00055480079087283872	-0,19972433740118333	0,000380537414	-0,0088740024437719885	0,00033110096240031309	0,0088740024437719885
1	0	0	1	0	0	1	128334,15	-0,200000003	1,89754248	-0,00055480167360934944	-0,19972465562645728	0,000378986006	-0,0094288041173813376	0,00035180135878146144	0,0094288041173813376
1	0	0	1	0	0	1	128344,15	-0,200000003	1,89788532	-0,00055480008425894707	-0,19972408347161907	0,00037905341	-0,0099836042016402842	0,00037250169586180941	0,0099836042016402842
1	0	0	1	0	0	1	128354,15	-0,200000003	1,89613318	-0,00055479586758299002	-0,19972256492166442	0,000378700584	-0,010538400069223274	0,0003932018756123081	0,010538400069223274
1	0	0	1	0	0	1	128364,15	-0,200000003	1,89165735	-0,00055479540414197581	-0,19972239791879469	0,00037780634	-0,01109319547336525	0,00041390203807119942	0,01109319547336525
1	0	0	1	0	0	1	128374,15	-0,200000003	1,89146698	-0,0005547966819132368	-0,19972285799105805	0,000377769204	-0,011647992155278486	0,00043460224820545453	0,011647992155278486
1	0	0	1	0	0	1	128384,15	-0,200000003	1,88697207	-0,00055479924455450643	-0,19972378118166906	0,000376873184	-0,012202791399832994	0,00045530255395530086	0,012202791399832994
1	0	0	1	0	0	1	128394,15	-0,200000003	1,88480091	-0,0005547959824154775	-0,19972260683947568	0,000376437354	-0,01275758738224847	0,00047600273799035405	0,01275758738224847
1	0	0	1	0	0	1	128404,15	-0,200000003	1,8803823	-0,0005547933836927017	-0,19972167094111046	0,000375553092	-0,013312380765941174	0,0004967028250635664	0,013312380765941174
1	0	0	1	0	0	1	128414,15	-0,200000003	1,87706828	-0,00055479509612421197	-0,19972228703226634	0,000374892377	-0,013867175862065386	0,0005174029760299008	0,013867175862065386
1	0	0	1	0	0	1	128424,16	-0,200000003	1,87272584	-0,00055479517451011475	-0,1997223152506336	0,000374025141	-0,014421971036575501	0,00053810312992091872	0,014421971036575501
1	0	0	1	0	0	1	128434,16	-0,200000003	1,87114501	-0,00055478659285853306	-0,19971922653092365	0,000373703631	-0,014976757629434032	0,00055880296361897786	0,014976757629434032
1	0	0	1	0	0	1	128444,16	-0,200000003	1,86739302	-0,00055479328648994368	-0,19972163632081232	0,000372958777	-0,015531550915923978	0,00057950304706542464	0,015531550915923978
1	0	0	1	0	0	1	128454,16	-0,200000003	1,85981274	-0,00055479448412110406	-0,19972206730140842	0,00037144564	-0,016086345400045082	0,00060020317519710029	0,016086345400045082
1	0	0	1	0	0	1	128464,16	-0,200000003	1,85623217	-0,00055479996102220474	-0,19972403836092819	0,000370734197	-0,016641145361067286	0,00062090350767931981	0,016641145361067286
1	0	0	1	0	0	1	128474,16	-0,200000003	1,85324192	-0,00055479700848791341	-0,19972297546988227	0,000370134978	-0,0171959423695552	0,00064160372999851507	0,0171959423695552
1	0	0	1	0	0	1	128484,16	-0,200000003	1,84888041	-0,00055479607672906592	-0,19972264044323242	0,000369263289	-0,017750738446284269	0,00066230391755253517	0,017750738446284269
1	0	0	1	0	0	1	128494,16	-0,200000003	1,8417573	-0,00055479480164415315	-0,1997221817655489	0,000367839792	-0,018305533247928422	0,00068300405753142272	0,018305533247928422
1	0	0	1	0	0	1	128504,16	-0,200000003	1,84320474	-0,00055479054503556755	-0,19972064941673971	0,000368126057	-0,01886032379296399	0,00070370403869052083	0,01886032379296399
1	0	0	1	0	0	1	128514,16	-0,200000003	1,83838618	-0,00055479220435520013	-0,19972124607237968	0,000367164786	-0,019415115997319194	0,00072440408176106547	0,019415115997319194
1	0	0	1	0	0	1	128524,16	-0,200000003	1,83488178	-0,00055479148188564512	-0,19972098593209891	0,000366464403	-0,019969907479204838	0,00074510409787529958	0,019969907479204838
1	0	0	1	0	0	1	128534,16	-0,200000003	1,83389139	-0,0005547917382609513	-0,19972107841254848	0,000366266759	-0,020524699217465789	0,00076580412355524109	0,020524699217465789
1	0	0	1	0	0	1	128544,16	-0,200000003	1,83034885	-0,0005547877644995849	-0,19971964844356675	0,000365556625	-0,021079486981965376	0,0007865040009688032	0,021079486981965376
1	0	0	1	0	0	1	128554,16	-0,200000003	1,82606351	-0,0005547836303851671	-0,19971816019178659	0,000364698033	-0,021634270612350541	0,00080720372413299802	0,021634270612350541
1	0	0	1	0	0	1	128564,16	-0,200000003	1,82198775	-0,00055478876753234202	-0,19972000905392355	0,000363887404	-0,022189059379882886	0,00082790363897106086	0,022189059379882886
1	0	0	1	0	0	1	128574,16	-0,200000003	1,81781673	-0,0005547947247525056	-0,19972215334109446	0,000363058265	-0,022743854104635392	0,00084860377608101773	0,022743854104635392
1	0	0	1	0	0	1	128584,16	-0,200000003	1,81393135	-0,00055478869553489818	-0,19971998286565594	0,000362278341	-0,023298642800170288	0,00086930368823275904	0,023298642800170288
1	0	0	1	0	0	1	128594,16	-0,200000003	1,81012213	-0,00055477675464418202	-0,19971568496232141	0,000361509796	-0,02385341955481447	0,00089000315485381312	0,02385341955481447
1	0	0	1	0	0	1	128604,16	-0,200000003	1,8075701	-0,0005547833261382249	-0,1997180506673768	0,000361004379	-0,024408202880952694	0,00091070286666614541	0,024408202880952694
1	0	0	1	0	0	1	128614,16	-0,200000003	1,80410373	-0,00055478248034665978	-0,19971774592803315	0,000360311533	-0,02496298536129935	0,00093140254692085722	0,02496298536129935
1	0	0	1	0	0	1	128624,16	-0,200000003	1,79705656	-0,00055477756990989056	-0,19971597772214109	0,000358900899	-0,025517762931209242	0,00095210204396057101	0,025517762931209242
1	0	0	1	0	0	1	128634,16	-0,200000003	1,79374266	-0,00055477911261717472	-0,19971653308578643	0,000358240068	-0,026072542043826416	0,00097280159856076787	0,026072542043826416
1	0	0	1	0	0	1	128644,16	-0,200000003	1,78854311	-0,00055477728190935315	-0,1997158745647863	0,00035720045	-0,02662731932573577	0,00099350108485479437	0,02662731932573577
1	0	0	1	0	0	1	128654,16	-0,200000003	1,78416252	-0,00055478701444632486	-0,19971937843205405	0,000356331817	-0,027182106340182093	0,001014200934282861	0,027182106340182093
1	0	0	1	0	0	1	128664,16	-0,200000003	1,77976298	-0,00055478416325234701	-0,19971835197600586	0,000355451339	-0,027736890503434442	0,0010349006773290467	0,027736890503434442
1	0	0	1	0	0	1	128674,16	-0,200000003	1,78102005	-0,00055478229033367507	-0,19971767704111597	0,000355701195	-0,028291672793768115	0,0010556003504941187	0,028291672793768115
1	0	0	1	0	0	1	128684,16	-0,200000003	1,77509677	-0,00055478032749560141	-0,19971697043337578	0,00035451696	-0,028846453121263718	0,0010762999504230629	0,028846453121263718
1	0	0	1	0	0	1	128694,16	-0,200000003	1,76768792	-0,00055478943388826317	-0,19972024897683917	0,000353043084	-0,029401242555151974	0,0010969998901237611	0,029401242555151974
1	0	0	1	0	0	1	128704,16	-0,200000003	1,76286936	-0,00055478769109480915	-0,19971962202069472	0,000352079602	-0,02995603024624679	0,0011176997647984923	0,02995603024624679
1	0	0	1	0	0	1	128714,16	-0,200000003	1,76405013	-0,00055478504450039731	-0,19971866926553437	0,000352313742	-0,030510815290747187	0,0011383995407252278	0,030510815290747187
1	0	0	1	0	0	1	128724,16	-0,200000003	1,75519383	-0,00055477661368581984	-0,1997156336463761	0,00035053966	-0,031065591904433005	0,0011590990020869358	0,031065591904433005
1	0	0	1	0	0	1	128734,16	-0,200000003	1,75528908	-0,00055478247186624346	-0,1997177423915489	0,000350562361	-0,031620374376299251	0,0011797986820252318	0,031620374376299251
1	0	0	1	0	0	1	128744,16	-0,200000003	1,75205123	-0,00055477655437091994	-0,19971561222833558	0,000349911978	-0,032175150930670163	0,0012004981411738211	0,032175150930670163
1	0	0	1	0	0	1	128754,16	-0,200000003	1,74864209	-0,00055477765926056435	-0,19971601063173331	0,000349231821	-0,032729928589930726	0,0012211976415473288	0,032729928589930726
1	0	0	1	0	0	1	128764,16	-0,200000003	1,7441473	-0,00055477921279354227	-0,19971656989255347	0,000348335103	-0,033284707802724275	0,0012418971998852406	0,033284707802724275
1	0	0	1	0	0	1	128774,16	-0,200000003	1,74165225	-0,00055478279246224294	-0,19971785817582371	0,000347839057	-0,033839490595186515	0,0012625968917854046	0,033839490595186515
1	0	0	1	0	0	1	128784,16	-0,200000003	1,73837638	-0,00055478897550702093	-0,199720083653628	0,000347188674	-0,034394279570693542	0,0012832968143832824	0,034394279570693542
1	0	0	1	0	0	1	128794,16	-0,200000003	1,73599565	-0,00055478441931058963	-0,19971844345533178	0,000346710352	-0,034949063990004128	0,0013039965669833454	0,034949063990004128
1	0	0	1	0	0	1	128804,16	-0,200000003	1,73033905	-0,00055479297072854304	-0,19972152252805347	0,000345585955	-0,035503856960732672	0,0013246966386483101	0,035503856960732672
1	0	0	1	0	0	1	128814,16	-0,200000003	1,72645366	-0,00055478956176754502	-0,19972029544724659	0,000344807835	-0,036058646522500218	0,0013453965831203562	0,036058646522500218
1	0	0	1	0	0	1	128824,16	-0,200000003	1,72420633	-0,00055479142107648986	-0,19972096462713875	0,00034436016	-0,03661343794357671	0,0013660965969657187	0,03661343794357671
1	0	0	1	0	0	1	128834,16	-0,200000003	1,7168355	-0,00055478462973237043	-0,19971851920567562	0,000342883839	-0,037168222573309082	0,0013867963574169014	0,037168222573309082
1	0	0	1	0	0	1	128844,16	-0,200000003	1,71262646	-0,0005547893036388688	-0,19972020177875846	0,000342046114	-0,037723011876947955	0,0014074962922578197	0,037723011876947955
1	0	0	1	0	0	1	128854,16	-0,200000003	1,70329392	-0,00055479430377897293	-0,19972200220282237	0,000340185274	-0,038277806180726925	0,0014281964136606882	0,038277806180726925
1	0	0	1	0	0	1	128864,16	-0,200000003	1,69689453	-0,00055479327012019027	-0,19972163042810816	0,000338906539	-0,03883259945084711	0,0014488964964963571	0,03883259945084711
1	0	0	1	0	0	1	128874,16	-0,200000003	1,69352341	-0,00055479554858141472	-0,19972245065793997	0,000338234648	-0,039387394999428525	0,0014695966643444781	0,039387394999428525
1	0	0	1	0	0	1	128884,16	-0,200000003	1,68893337	-0,00055479602554440499	-0,19972262167301402	0,000337318197	-0,039942191024972928	0,0014902968499887293	0,039942191024972928
1	0	0	1	0	0	1	128894,16	-0,200000003	1,68603849	-0,00055479132351858746	-0,19972092892137562	0,000336737168	-0,040496982348491514	0,0015109968601940758	0,040496982348491514
1	0	0	1	0	0	1	128904,16	-0,200000003	1,67960095	-0,00055478348675618566	-0,19971810794697997	0,000335446734	-0,041051765835247699	0,00153169657799928	0,041051765835247699
1	0	0	1	0	0	1	128914,16	-0,200000003	1,67941046	-0,00055478667703767616	-0,19971925696501587	0,000335410616	-0,041606552512285376	0,0015523964148381763	0,041606552512285376
1	0	0	1	0	0	1	128924,17	-0,200000003	1,66931617	-0,00055478511194967558	-0,19971869354446973	0,000333393633	-0,042161337624235053	0,001573096193281535	0,042161337624235053
1	0	0	1	0	0	1	128934,17	-0,200000003	1,66259301	-0,0005547810993674729	-0,19971724857029123	0,000332048512	-0,042716118723602522	0,0015937958220100563	0,042716118723602522
1	0	0	1	0	0	1	128944,17	-0,200000003	1,6574887	-0,00055478411796109542	-0,19971833497165805	0,000331030897	-0,043270902841563616	0,0016144955633663648	0,043270902841563616
1	0	0	1	0	0	1	128954,17	-0,200000003	1,65331769	-0,0005547940733151303	-0,19972191882827459	0,000330203795	-0,043825696914878746	0,0016351956761703171	0,043825696914878746
1	0	0	1	0	0	1	128964,17	-0,200000003	1,64794683	-0,00055479194924483693	-0,19972115491278704	0,000329129834	-0,044380488864123584	0,0016558957097223507	0,044380488864123584
1	0	0	1	0	0	1	128974,17	-0,200000003	1,63975704	-0,00055478717869934106	-0,1997194375596464	0,000327491347	-0,044935276042822925	0,0016765955652789181	0,044935276042822925
1	0	0	1	0	0	1	128984,17	-0,200000003	1,63625264	-0,00055479120177113344	-0,19972088555787005	0,000326793815	-0,045490067244594054	0,0016972955709417034	0,045490067244594054
1	0	0	1	0	0	1	128994,17	-0,200000003	1,6266917	-0,00055479283644507328	-0,19972147356617987	0,000324885274	-0,04604486008103913	0,0017179956375963709	0,04604486008103913
1	0	0	1	0	0	1	129004,17	-0,200000003	1,62295866	-0,00055479273500376282	-0,19972143704802992	0,000324139633	-0,046599652816042893	0,0017386957004661267	0,046599652816042893
1	0	0	1	0	0	1	129014,17	-0,200000003	1,61577845	-0,00055478688757038778	-0,19971933253441997	0,000322702195	-0,04715443970361328	0,0017593955451602813	0,04715443970361328
1	0	0	1	0	0	1	129024,17	-0,200000003	1,60591269	-0,00055479147197554515	-0,1997209831108624	0,000320734456	-0,047709231175588826	0,0017800955609047568	0,047709231175588826
1	0	0	1	0	0	1	129034,17	-0,200000003	1,60337961	-0,00055478527793536582	-0,19971875323536275	0,000320224965	-0,048264016453524192	0,0018007953455412643	0,048264016453524192
1	0	0	1	0	0	1	129044,17	-0,200000003	1,59633255	-0,00055478469650695712	-0,1997185432463767	0,000318817212	-0,048818801150031149	0,0018214951084838966	0,048818801150031149
1	0	0	1	0	0	1	129054,17	-0,200000003	1,58383858	-0,00055478125645137498	-0,19971730485084435	0,000316319987	-0,049373582406482528	0,0018421947430734301	0,049373582406482528
1	0	0	1	0	0	1	129064,17	-0,200000003	1,58231485	-0,00055477795228941574	-0,19971611568294352	0,000316013786	-0,049928360358771942	0,0018628942543802378	0,049928360358771942
1	0	0	1	0	0	1	129074,17	-0,200000003	1,57220149	-0,00055478227894256512	-0,19971767367973907	0,000313996425	-0,050483142637714509	0,0018835939271202925	0,050483142637714509
1	0	0	1	0	0	1	129084,17	-0,200000003	1,56298339	-0,00055478382483704218	-0,19971823019540323	0,000312156277	-0,051037926462551552	0,0019042936575397478	0,051037926462551552
1	0	0	1	0	0	1	129094,17	-0,200000003	1,5759536	-0,00055478600283712154	-0,19971901366474019	0,000314747886	-0,051592712465388672	0,0019249934692233149	0,051592712465388672
1	0	0	1	0	0	1	129104,17	-0,200000003	1,56027889	-0,00055478195562379232	-0,19971755654793974	0,000311615091	-0,052147494421012461	0,001945693129899911	0,052147494421012461
1	0	0	1	0	0	1	129114,17	-0,200000003	1,55083215	-0,00055478076940857702	-0,19971712961190131	0,000309727737	-0,052702275190421037	0,0019663927463172227	0,052702275190421037
1	0	0	1	0	0	1	129124,17	-0,200000003	1,54355657	-0,00055478378925141357	-0,19971821738483008	0,000308276358	-0,053257058979672448	0,0019870924754089309	0,053257058979672448
1	0	0	1	0	0	1	129134,17	-0,200000003	1,53369093	-0,00055478054156899456	-0,19971704824691328	0,000306304224	-0,053811839521241446	0,0020077920833252413	0,053811839521241446
1	0	0	1	0	0	1	129144,17	-0,200000003	1,52491081	-0,0005547798345461488	-0,19971679333777466	0,000304550311	-0,05436661935578759	0,0020284916648615786	0,05436661935578759
1	0	0	1	0	0	1	129154,17	-0,200000003	1,51630199	-0,0005547738931261831	-0,19971465410616803	0,000302827713	-0,054921393248913779	0,0020491910247155491	0,054921393248913779
1	0	0	1	0	0	1	129164,17	-0,200000003	1,50805521	-0,00055477586128231552	-0,19971536262837158	0,000301181804	-0,055476169110196096	0,0020698904580040707	0,055476169110196096
1	0	0	1	0	0	1	129169,41	-0,200000003	1,49948454	-0,00029066542163077325	-0,19971671682244192	0,000299472129	-0,055766834531826867	0,0020807355756889309	0,055766834531826867
1	1	0	0	1	0	2	129169,41	0,200000003	2,12742877	1,0050538513395523E-008	0,060303239916491392	0,000128290849	-0,055766824481288358	0,0020807352006898256	1,0050538513395523E-008
1	1	0	0	0	0	2	129179,41	0,200000003	2,45459485	0,00055613040390362336	0,20020298908443674	0,000491417246	-0,055210694077384736	0,0020599852275949011	0,00055614045444213683
1	1	0	0	0	0	2	129189,41	0,200000003	2,45901346	0,00055613969909482528	0,20020633528248195	0,000492310093	-0,054654554378289907	0,002039234907683895	0,0011122801535369621
1	1	0	0	0	0	2	129199,41	0,200000003	2,46042275	0,00055613799011541734	0,20020571950269555	0,000492590712	-0,05409841638817449	0,002018484651537209	0,0016684181436523795
1	1	0	0	0	0	2	129209,41	0,200000003	2,46185112	0,00055613384402626086	0,20020422675364774	0,00049287302	-0,05354228254414823	0,0019977345500866829	0,0022245519876786403
1	1	0	0	0	0	2	129219,41	0,200000003	2,46318436	0,00055613551349689562	0,20020482781645546	0,000493141415	-0,052986147030651334	0,0019769843863459635	0,002780687501175536
1	1	0	0	0	0	2	129229,41	0,200000003	2,46230841	0,00055613699758963456	0,20020536275983187	0,000492967374	-0,052430010033061696	0,0019562341672317482	0,0033368244987651706
1	1	0	0	0	0	2	129239,41	0,200000003	2,46133709	0,00055613757039358214	0,20020556896517805	0,000492773368	-0,051873872462668115	0,001935483926745448	0,0038929620691587526
1	1	0	0	0	0	2	129249,41	0,200000003	2,4628036	0,00055613808688521382	0,20020575455355408	0,000493067433	-0,051317734375782899	0,0019147336669881504	0,0044491001560439667
1	1	0	0	0	0	2	129259,41	0,200000003	2,46461296	0,00055613699829330042	0,20020536226733824	0,000493428728	-0,0507615973774896	0,0018939834478476806	0,0050052371543372672
1	1	0	0	0	0	2	129269,41	0,200000003	2,46516514	0,00055613568724526298	0,20020489029937334	0,0004935381	-0,050205461690244339	0,001873233277624176	0,0055613728415825293
1	1	0	0	0	0	2	129279,41	0,200000003	2,463413	0,00055613491588665376	0,20020461321240694	0,000493186642	-0,04964932677435769	0,0018524831361810979	0,0061175077574691827
1	1	0	0	0	0	2	129289,41	0,200000003	2,46007991	0,00055613951567808781	0,20020626925143066	0,000492523424	-0,049093187258679603	0,0018317328231136173	0,0066736472731472704
1	1	0	0	0	0	2	129299,41	0,200000003	2,45929909	0,00055613641778462451	0,20020515389198346	0,000492364343	-0,048537050840894976	0,0018109826256327066	0,007229783690931895
1	1	0	0	0	0	2	129309,41	0,200000003	2,45678496	0,00055612935475673946	0,20020261064623222	0,000491854735	-0,047980921486138234	0,0017902326916828627	0,0077859130456886349
1	1	0	0	0	0	2	129319,41	0,200000003	2,45560408	0,00055612271220816499	0,20020021937600963	0,000491612474	-0,047424798773930067	0,0017694830055754371	0,0083420357578968
1	1	0	0	0	0	2	129329,41	0,200000003	2,45684218	0,00055612324916074669	0,20020041305733574	0,000491860847	-0,046868675524769325	0,0017487332994335888	0,0088981590070575462
1	1	0	0	0	0	2	129339,41	0,200000003	2,45449948	0,00055612471275031565	0,20020094030274109	0,00049139309	-0,046312550812019008	0,0017279835386832461	0,0094542837198078618
1	1	0	0	0	0	2	129349,41	0,200000003	2,41177964	0,00055613195167978605	0,20020354626585251	0,000482846837	-0,045756418860339226	0,0017072335078387117	0,010010415671487648
1	1	0	0	0	0	2	129359,41	0,200000003	2,41206551	0,00055613756728255085	0,20020556717167008	0,000482908945	-0,045200281293056672	0,0016864832674684877	0,010566553238770198
1	1	0	0	0	0	2	129369,41	0,200000003	2,418998	0,00055613767850812941	0,20020560713750605	0,000484296965	-0,044644143614548544	0,0016657330229482883	0,01112269091727833
1	1	0	0	0	0	2	129379,41	0,200000003	2,41223693	0,00055613482911056947	0,20020458154508717	0,000482940872	-0,044088008785437971	0,0016449828847429427	0,011678825746388899
1	1	0	0	0	0	2	129389,41	0,200000003	2,40934181	0,00055613191383332006	0,20020353264168534	0,000482358737	-0,043531876871604646	0,0016242328553105107	0,012234957660222218
1	1	0	0	0	0	2	129399,41	0,200000003	2,42217875	0,00055613155248926752	0,20020340256039702	0,000484928431	-0,042975745319115386	0,0016034828393603117	0,012791089212711485
1	1	0	0	0	0	2	129409,41	0,200000003	2,42025518	0,0005561330877956416	0,20020395480296509	0,000484544667	-0,042419612231319744	0,0015827327661257674	0,013347222300507126
1	1	0	0	0	0	2	129419,41	0,200000003	2,42343569	0,0005561370427666439	0,20020537827509478	0,000485184864	-0,041863475188553101	0,0015619825453259373	0,013903359343273771
1	1	0	0	0	0	2	129429,41	0,200000003	2,41753149	0,00055613785232355194	0,20020566970982141	0,000484003511	-0,041307337336229549	0,0015412322943204506	0,014459497195597322
1	1	0	0	0	0	2	129439,42	0,200000003	2,39574313	0,00055613535077455968	0,2002047698796648	0,000479639217	-0,040751201985454989	0,00152048213665112	0,015015632546371885
1	1	0	0	0	0	2	129449,42	0,200000003	2,34637642	0,00055613852015634374	0,20020591087068496	0,000469758437	-0,040195063465298643	0,0014997318607278941	0,015571771066528227
1	1	0	0	0	0	2	129459,42	0,200000003	2,35643268	0,00055614037485172358	0,20020657830543811	0,000471773325	-0,039638923090446918	0,0014789815156034899	0,016127911441379952
1	1	0	0	0	0	2	129469,42	0,200000003	2,37401175	0,00055613490193088851	0,20020460758945565	0,000475288078	-0,039082788188516032	0,0014582313746811197	0,016684046343310838
1	1	0	0	0	0	2	129479,42	0,200000003	2,35850859	0,0005561386602512665	0,20020596055804989	0,000472187472	-0,038526649528264762	0,0014374810935307638	0,017240185003562106
1	1	0	0	0	0	2	129489,42	0,200000003	2,37473559	0,00055613536900447469	0,20020477623837312	0,000475433422	-0,037970514159260288	0,001416730935181251	0,017796320372566582
1	1	0	0	0	0	2	129499,42	0,200000003	2,38387752	0,00055613417747865126	0,20020434753994022	0,000477262656	-0,037414379981781638	0,0013959808212891683	0,018352454550045232
1	1	0	0	0	0	2	129509,42	0,200000003	2,36178446	0,00055613817761010592	0,20020578753083901	0,000472842919	-0,036858241804171533	0,0013752305581468029	0,018908592727655338
1	1	0	0	0	0	2	129519,42	0,200000003	2,40770388	0,00055614049999001952	0,20020662285324125	0,000482038275	-0,036302101304181517	0,0013544802083533206	0,019464733227645357
1	1	0	0	0	0	2	129529,42	0,200000003	2,36949801	0,00055613812012639315	0,20020576611926934	0,000474387169	-0,035745963184055123	0,0013337299473557499	0,020020871347771747
1	1	0	0	0	0	2	129539,42	0,200000003	2,36860275	0,00055613337047977574	0,20020405656928141	0,000474203873	-0,035189829813575347	0,0013129798635738803	0,020577004718251523
1	1	0	0	0	0	2	129549,42	0,200000003	2,37315488	0,0005561355889017383	0,20020485564221066	0,000475117122	-0,034633694224673606	0,0012922296970197046	0,021133140307153264
1	1	0	0	0	0	2	129559,42	0,200000003	2,36650777	0,00055613173045135206	0,20020346662752074	0,00047378306	-0,034077562494222253	0,0012714796744295006	0,021689272037604618
1	1	0	0	0	0	2	129569,42	0,200000003	2,37058353	0,00055613569480429094	0,20020489319769869	0,000474602421	-0,033521426799417965	0,0012507295039239582	0,022245407732408906
1	1	0	0	0	0	2	129579,42	0,200000003	2,37085032	0,00055613434063808787	0,20020440553037187	0,000474654691	-0,032965292458779878	0,0012299793839441779	0,022801542073046992
1	1	0	0	0	0	2	129589,42	0,200000003	2,37199306	0,00055613445882830362	0,20020444815258909	0,000474883564	-0,032409157999951571	0,0012092292595545616	0,023357676531875299
1	1	0	0	0	0	2	129599,42	0,200000003	2,36357474	0,0005561391050169865	0,2002061214186863	0,000473202119	-0,031853018894934586	0,0011884789618093982	0,023913815636892285
1	1	0	0	0	0	2	129609,42	0,200000003	2,36332726	0,00055614195611824589	0,20020714779485686	0,000473155	-0,031296876938816346	0,0011677285576858142	0,024469957593010531
1	1	0	0	0	0	2	129619,42	0,200000003	2,37191677	0,00055613642660942342	0,2002051568567592	0,000474869972	-0,030740740512206925	0,0011469783598756386	0,025026094019619955
1	1	0	0	0	0	2	129629,42	0,200000003	2,36909795	0,00055613840871469843	0,20020587000900586	0,000474307308	-0,030184602103492224	0,0011262280881104501	0,025582232428334653
1	1	0	0	0	0	2	129639,42	0,200000003	2,36824107	0,00055613857796871008	0,20020593093924573	0,000474135915	-0,029628463525523514	0,0011054778100301669	0,02613837100630336
1	1	0	0	0	0	2	129649,42	0,200000003	2,36681247	0,0005561303089972999	0,20020295477433683	0,00047384284	-0,029072333216526214	0,0010847278404763248	0,026694501315300659
1	1	0	0	0	0	2	129659,42	0,200000003	2,36892653	0,00055613357639229958	0,20020413115312976	0,000474268891	-0,028516199640133917	0,0010639777490115822	0,027250634891692957
1	1	0	0	0	0	2	129669,42	0,200000003	2,36816478	0,00055613746978176966	0,20020553260580214	0,000474119704	-0,027960062170352147	0,0010432275122792437	0,02780677236147473
1	1	0	0	0	0	2	129679,42	0,200000003	2,36627936	0,00055613928613149459	0,20020618587280934	0,00047374377	-0,027403922884220653	0,0010224772077764547	0,028362911647606224
1	1	0	0	0	0	2	129689,42	0,200000003	2,37096453	0,00055613564915292794	0,20020487658407309	0,000474678673	-0,026847787235067725	0,0010017270389742264	0,028919047296759149
1	1	0	0	0	0	2	129699,42	0,200000003	2,37357378	0,00055613385771132179	0,2002042320693888	0,000475199515	-0,0262916533773564	0,00098097693701309274	0,029475181154470477
1	1	0	0	0	0	2	129709,42	0,200000003	2,38385844	0,00055613549250778234	0,2002048209387416	0,00047725995	-0,025735517884848618	0,00096022677405550515	0,030031316646978259
1	1	0	0	0	0	2	129719,42	0,200000003	2,36033702	0,00055613400741169856	0,20020428631471645	0,000472549582	-0,025179383877436918	0,00093947666650884915	0,030587450654389958
1	1	0	0	0	0	2	129729,42	0,200000003	2,38804865	0,00055613307823323546	0,20020395114585718	0,000478096772	-0,024623250799203683	0,00091872659363109107	0,031143583732623194
1	1	0	0	0	0	2	129739,42	0,200000003	2,37222147	0,00055614230836845114	0,20020727385427866	0,00047493598	-0,024067108490835229	0,00089797617636457792	0,031699726040991648
1	1	0	0	0	0	2	129749,42	0,200000003	2,37462139	0,00055614372706164922	0,2002077847508671	0,000475417677	-0,023510964763773581	0,00087722570616471411	0,032255869768053293
1	1	0	0	0	0	2	129759,42	0,200000003	2,38349676	0,00055613171630021606	0,20020346153088179	0,000477184309	-0,022954833047473366	0,00085647568410250803	0,03281200148435351
1	1	0	0	0	0	2	129769,42	0,200000003	2,37561178	0,00055613144664300813	0,20020336445620528	0,000475605484	-0,022398701600830358	0,00083572567210157491	0,033368132930996518
1	1	0	0	0	0	2	129779,42	0,200000003	2,37875438	0,00055613250836978362	0,20020374620445619	0,000476235524	-0,021842569092460573	0,00081497562048618842	0,033924265439366304
1	1	0	0	0	0	2	129789,42	0,200000003	2,3703742	0,00055613429509351648	0,20020438913261098	0,000474559318	-0,021286434797367059	0,00079422550220573709	0,034480399734459821
1	1	0	0	0	0	2	129799,42	0,200000003	2,37572598	0,0005561376273930073	0,20020558873642576	0,000475633628	-0,020730297169974051	0,00077347525959271142	0,035036537361852832
1	1	0	0	0	0	2	129809,42	0,200000003	2,38378239	0,00055613635706653197	0,20020513214635584	0,000477245456	-0,02017416081290752	0,0007527250643772745	0,035592673718919366
1	1	0	0	0	0	2	129819,42	0,200000003	2,38484883	0,00055613500576052403	0,20020464571319136	0,000477457826	-0,019618025807146995	0,00073197491958088166	0,036148808724679891
1	1	0	0	0	0	2	129829,42	0,200000003	2,37584019	0,00055613120199905491	0,20020327613441488	0,000475651002	-0,019061894605147942	0,00071122491670794342	0,03670493992667895
1	1	0	0	0	0	2	129839,42	0,200000003	2,37353563	0,00055612806195351821	0,20020214524743664	0,000475186913	-0,018505766543194422	0,00069047503099432589	0,037261067988632461
1	1	0	0	0	0	2	129849,42	0,200000003	2,37816381	0,0005561331259210905	0,20020396823856534	0,000476117828	-0,017949633417273334	0,00066972495633726976	0,037817201114553555
1	1	0	0	0	0	2	129859,42	0,200000003	2,38084936	0,00055613218071642854	0,20020362847502883	0,000476654677	-0,017393501236556906	0,00064897491694707046	0,038373333295269984
1	1	0	0	0	0	2	129869,42	0,200000003	2,37869716	0,0005561361126345065	0,20020504417995069	0,000476227171	-0,016837365123922397	0,00062822473085172096	0,038929469407904486
1	1	0	0	0	0	2	129879,42	0,200000003	2,38067794	0,000556137604734136	0,20020558127858941	0,00047662502	-0,016281227519188259	0,00060747448908412826	0,039485607012638624
1	1	0	0	0	0	2	129889,42	0,200000003	2,38204932	0,00055613744381070138	0,20020552264810189	0,00047689944	-0,015725090075377558	0,00058672425332080525	0,040041744456449325
1	1	0	0	0	0	2	129899,42	0,200000003	2,3850584	0,00055613344159308403	0,20020408188056758	0,000477498426	-0,015168956633784477	0,00056597416688560256	0,040597877898042406
1	1	0	0	0	0	2	129909,42	0,200000003	2,38283014	0,00055613495336059066	0,20020462639511286	0,000477053632	-0,014612821680423885	0,00054522402404432173	0,041154012851403002
1	1	0	0	0	0	2	129919,42	0,200000003	2,38835335	0,00055613504506813152	0,20020465986598106	0,000478159462	-0,014056686635355755	0,00052447387778130912	0,04171014789647113
1	1	0	0	0	0	2	129929,42	0,200000003	2,38412523	0,00055613950283742611	0,20020626463121443	0,000477316818	-0,013500547132518328	0,00050372356519293062	0,042266287399308557
1	1	0	0	0	0	2	129939,42	0,200000003	2,39229584	0,00055613531797958746	0,20020475753416397	0,000478949019	-0,012944411814538739	0,00048297340874722464	0,042822422717288147
1	1	0	0	0	0	2	129949,43	0,200000003	2,38355374	0,00055612882573571462	0,20020242020475808	0,000477193214	-0,012388282988803024	0,0004622234945358665	0,043378551543023859
1	1	0	0	0	0	2	129959,43	0,200000003	2,38602972	0,00055613533010499341	0,20020476180599808	0,000477694499	-0,01183214765869803	0,00044147333763774541	0,043934686873128845
1	1	0	0	0	0	2	129969,43	0,200000003	2,38534403	0,00055613566869580077	0,2002048843675055	0,000477557536	-0,01127601199000223	0,00042072316810634598	0,044490822541824646
1	1	0	0	0	0	2	129979,43	0,200000003	2,40800858	0,00055613626381506522	0,20020509861086832	0,00048209558	-0,010719875726187165	0,00039997297637024666	0,045046958805639712
1	1	0	0	0	0	2	129989,43	0,200000003	2,40023804	0,00055613043781783846	0,20020300092041315	0,000480534858	-0,010163745288369328	0,00037922300200993709	0,045603089243457555
1	1	0	0	0	0	2	129999,43	0,200000003	2,39180064	0,00055613369028518586	0,20020417140795469	0,000478848466	-0,0096076115980841421	0,00035847290629569773	0,046159222933742733
1	1	0	0	0	0	2	130009,43	0,200000003	2,38250637	0,00055612972066799795	0,20020274237401235	0,000476984307	-0,0090514818774161434	0,00033772295869321286	0,046715352654410733
1	1	0	0	0	0	2	130019,43	0,200000003	2,38932467	0,0005561330664646295	0,20020394744295808	0,000478352216	-0,0084953488109515136	0,00031697288625455718	0,047271485720875366
1	1	0	0	0	0	2	130029,43	0,200000003	2,39789534	0,00055612887250218131	0,20020243778615075	0,000480064482	-0,0079392199384493325	0,00029622297029827936	0,047827614593377555
1	1	0	0	0	0	2	130039,43	0,200000003	2,39700007	0,00055613030579603386	0,20020295361258131	0,000479886483	-0,0073830896326532992	0,00027547300086388077	0,048383744899173587
1	1	0	0	0	0	2	130049,43	0,200000003	2,39899993	0,00055613211686826419	0,20020360498905827	0,000480288436	-0,0068269575157850355	0,00025472296385594224	0,048939877016041856
1	1	0	0	0	0	2	130059,43	0,200000003	2,39941907	0,00055613367825415398	0,2002041670768688	0,00048037371	-0,0062708238375308813	0,0002339728685905969	0,049496010694296006
1	1	0	0	0	0	2	130069,43	0,200000003	2,39480996	0,00055613340942561626	0,20020407070137744	0,000479450711	-0,0057146904281052653	0,0002132227833556057	0,050052144103721626
1	1	0	0	0	0	2	130079,43	0,200000003	2,40322828	0,00055613688079433299	0,20020532071202358	0,000481139083	-0,0051585535473109325	0,00019247256859918038	0,050608280984515962
1	1	0	0	0	0	2	130089,43	0,200000003	2,39353395	0,00055613130238817805	0,2002033125254927	0,000479193433	-0,0046024222449227539	0,00017172256198058896	0,051164412286904141
1	1	0	0	0	0	2	130099,43	0,200000003	2,39545751	0,00055612962963349286	0,20020270966516499	0,00047957708	-0,0040462926152892614	0,00015097261777472387	0,051720541916537632
1	1	0	0	0	0	2	130109,43	0,200000003	2,40585637	0,00055613139660325312	0,20020334569644864	0,000481660507	-0,0034901612186860077	0,00013022260764084131	0,052276673313140883
1	1	0	0	0	0	2	130119,43	0,200000003	2,3843348	0,00055612865974009037	0,20020236063396378	0,000477349444	-0,0029340325589459181	0,00010947269962300312	0,052832801972880973
1	1	0	0	0	0	2	130129,43	0,200000003	2,42235017	0,00055612983193662432	0,20020278317339418	0,00048496126	-0,0023779027270092934	8,8722747868936205E-005	0,0533889318048176
1	1	0	0	0	0	2	130139,43	0,200000003	2,39480996	0,0005561331566638416	0,20020398005154026	0,000479450478	-0,0018217695703454518	6,7972672064826675E-005	0,053945064961481446
1	1	0	0	0	0	2	130149,43	0,200000003	2,41147494	0,00055613314478844403	0,20020397531035462	0,000482786883	-0,0012656364255570077	4,7222596703804186E-005	0,054501198106269888
1	1	0	0	0	0	2	130159,43	0,200000003	2,40282822	0,0005561310723324617	0,20020322896127104	0,000481053954	-0,00070950535322454605	2,6472598668900851E-005	0,055057329178602349
1	1	0	0	0	0	2	130169,43	0,200000003	2,38938189	0,00055613001044591264	0,20020284668996042	0,000478361064	-0,00015337534277863334	5,7226402544123795E-006	0,055613459189048262
1	1	0	0	0	0	2	130179,43	0,200000003	2,37801147	0,0005561313514626688	0,20020333017360656	0,000476085814	0,00040275600868403546	-1,5027368195214278E-005	0,056169590540510925
1	1	0	0	0	0	2	130189,43	0,200000003	2,39020085	0,00055612866309781862	0,20020236240003066	0,000478523871	0,00095888467178185408	-3,5777276338333837E-005	0,056725719203608742
1	1	0	0	0	0	2	130199,43	0,200000003	2,39728594	0,00055612369241482682	0,20020057272848848	0,000479938026	0,001515008364196681	-5,6526999018587814E-005	0,057281842896023565
1	1	0	0	0	0	2	130209,43	0,200000003	2,40458035	0,00055612392177846701	0,20020065481271178	0,000481398572	0,0020711322859751478	-7,7276730256707584E-005	0,057837966817802035
1	1	0	0	0	0	2	130219,43	0,200000003	2,41153216	0,00055612922253459693	0,20020256304720173	0,000482794916	0,002627261508509745	-9,8026659273165504E-005	0,058394096040336627
1	1	0	0	0	0	2	130229,43	0,200000003	2,40827537	0,00055612887652549478	0,200202439000288	0,000482142612	0,0031833903850352397	-0,00011877657537955861	0,058950224916862118
1	1	0	0	0	0	2	130239,43	0,200000003	2,41176081	0,00055612945605069402	0,20020264785713334	0,0004828409	0,0037395198410859334	-0,00013952651310881608	0,059506354372912819
1	1	0	0	0	0	2	130249,43	0,200000003	2,39138174	0,0005561293706364103	0,20020261706198643	0,000478760892	0,0042956492117223437	-0,00016027644765115178	0,060062483743549235
1	1	0	0	0	0	2	130259,43	0,200000003	2,39835238	0,0005561282339758343	0,20020220717308112	0,000480155431	0,0048517774456981779	-0,00018102633978315312	0,060618611977525069
1	1	0	0	0	0	2	130269,43	0,200000003	2,39690495	0,00055612964653058182	0,20020271568273939	0,000479866867	0,005407907092228759	-0,0002017762846194713	0,061174741624055642
1	1	0	0	0	0	2	130279,43	0,200000003	2,40435195	0,00055613808617078586	0,20020575419381629	0,000481365103	0,0059640451783995456	-0,0002225265443501127	0,061730879710226432
1	1	0	0	0	0	2	130289,43	0,200000003	2,40058088	0,00055613597173078189	0,20020499345794294	0,000480608287	0,006520181150130327	-0,00024327672518815472	0,06228701568195721
1	1	0	0	0	0	2	130299,43	0,200000003	2,40543747	0,00055613845105552006	0,20020588599721069	0,000481582741	0,007076319601185847	-0,0002640269985331361	0,062843154133012736
1	1	0	0	0	0	2	130309,43	0,200000003	2,39968562	0,00055613697308136358	0,20020535335902723	0,00048042991	0,0076324565742672102	-0,00028477721673291466	0,063399291106094106
1	1	0	0	0	0	2	130319,43	0,200000003	2,39759064	0,00055613247285452147	0,20020373314157795	0,000480006594	0,0081885890471217318	-0,00030552726702317901	0,063955423578948621
1	1	0	0	0	0	2	130329,43	0,200000003	2,39532423	0,00055613411478035981	0,20020432430709984	0,000479554263	0,0087447231619020915	-0,00032627737857590406	0,064511557693728986
1	1	0	0	0	0	2	130339,43	0,200000003	2,39404798	0,00055613354561146765	0,20020412007224925	0,000479298265	0,009300856707513559	-0,00034702746889217248	0,065067691239340467
1	1	0	0	0	0	2	130349,43	0,200000003	2,40002847	0,00055613736305468608	0,2002054943246505	0,000480498886	0,009856994070568247	-0,00036777770164238003	0,065623828602395149
1	1	0	0	0	0	2	130359,43	0,200000003	2,40200925	0,00055614079242613587	0,20020672851039174	0,000480898423	0,010413134862994382	-0,00038852806234704717	0,066179969394821274
1	1	0	0	0	0	2	130369,43	0,200000003	2,39795256	0,00055614110129409357	0,20020683931842941	0,000480086514	0,010969275964288477	-0,00040927843457599302	0,066736110496115366
1	1	0	0	0	0	2	130379,43	0,200000003	2,40103793	0,0005561426034553184	0,20020738008578192	0,000480705523	0,011525418567743794	-0,00043002886285259392	0,067292253099570701
1	1	0	0	0	0	2	130389,43	0,200000003	2,40288544	0,00055614023502833318	0,20020652809353757	0,000481073337	0,012081558802772126	-0,00045077920275999962	0,067848393334599027
1	1	0	0	0	0	2	130399,43	0,200000003	2,40248537	0,00055614126180774637	0,20020689784801638	0,000480994146	0,012637700064579874	-0,0004715295809779257	0,068404534596406771
1	1	0	0	0	0	2	130409,43	0,200000003	2,40686584	0,00055613826742602726	0,20020581974273757	0,000481868541	0,013193838332005901	-0,0004922798474714439	0,068960672863832794
1	1	0	0	0	0	2	130419,43	0,200000003	2,41676974	0,00055613976687855194	0,20020635893832928	0,000483852666	0,013749978098884454	-0,00051303016991155174	0,06951681263071136
1	1	0	0	0	0	2	130429,43	0,200000003	2,48744869	0,0005561438030368752	0,20020781192660691	0,000498006644	0,014306121901921328	-0,00053378064294615341	0,070072956433748237
1	1	0	0	0	0	2	130439,43	0,200000003	2,44783354	0,00055613998681803546	0,2002064385251752	0,000490072009	0,014862261888739363	-0,0005545309735924992	0,070629096420566285
1	1	0	0	0	0	2	130449,44	0,200000003	2,41610312	0,0005561362992723783	0,20020511137058746	0,000483716198	0,015418398188011744	-0,00057528116665155853	0,071185232719838656
1	1	0	0	0	0	2	130459,44	0,200000003	2,43484426	0,00055613967986984378	0,20020632836162541	0,000487471232	0,015974537867881587	-0,00059603148584525453	0,071741372399708506
1	1	0	0	0	0	2	130469,44	0,200000003	2,44690013	0,00055613708920362912	0,20020539505034534	0,000489882601	0,016530674957085216	-0,00061678170837771085	0,072297509488912128
1	1	0	0	0	0	2	130479,44	0,200000003	2,42688298	0,00055614171043038368	0,20020705860082893	0,000485879107	0,0170868166675156	-0,00063753210333435072	0,072853651199342502
1	1	0	0	0	0	2	130489,44	0,200000003	2,40019989	0,00055613967959996723	0,20020632771210477	0,000480535207	0,017642956347115568	-0,00065828242251797734	0,073409790878942477
1	1	0	0	0	0	2	130499,44	0,200000003	2,41863632	0,00055613783693396384	0,20020566491548867	0,0004842247	0,018199094184049533	-0,00067903267294925786	0,073965928715876442
1	1	0	0	0	0	2	130509,44	0,200000003	2,416008	0,00055613797587984141	0,2002057149350161	0,000483698619	0,018755232159929373	-0,00069978292856479578	0,074522066691756288
1	1	0	0	0	0	2	130519,44	0,200000003	2,41602707	0,00055614481171965594	0,20020817530393674	0,000483708369	0,019311376971649027	-0,0007205334392347081	0,075078211503475942
1	1	0	0	0	0	2	130529,44	0,200000003	2,43145418	0,00055613710357911066	0,20020540016715008	0,000486790261	0,019867514075228138	-0,00074128366230353306	0,075634348607055066
1	1	0	0	0	0	2	130539,44	0,200000003	2,42412138	0,00055613689800186291	0,20020532616080368	0,000485322002	0,02042365097323	-0,0007620338777019945	0,076190485505056934
1	1	0	0	0	0	2	130549,44	0,200000003	2,42048359	0,00055613985988414957	0,20020639314451885	0,000484596298	0,020979790833114154	-0,00078278420361226624	0,076746625364941082
1	1	0	0	0	0	2	130559,44	0,200000003	2,42040753	0,00055613721893644998	0,2002054424407801	0,000484578748	0,021535928052050602	-0,00080353443098522867	0,07730276258387753
1	1	0	0	0	0	2	130569,44	0,200000003	2,44379568	0,00055613746605896288	0,2002055311330623	0,000489261409	0,022092065518109568	-0,00082428466757866419	0,077858900049936499
1	1	0	0	0	0	2	130579,44	0,200000003	2,44301486	0,00055614076108816602	0,20020671684467683	0,000489107973	0,022648206279197731	-0,0008450350271140695	0,078415040811024653
1	1	0	0	0	0	2	130589,44	0,200000003	2,40343761	0,00055613975390957459	0,20020635426725904	0,000481183495	0,023204346033107306	-0,00086578534907028749	0,078971180564934221
1	1	0	0	0	0	2	130599,44	0,200000003	2,42383575	0,0005561353271818823	0,200204761190112	0,000485263445	0,023760481360289187	-0,00088653550585934336	0,079527315892116109
1	1	0	0	0	0	2	130609,44	0,200000003	2,42587376	0,00055613931278553267	0,20020619621155421	0,000485674944	0,02431662067307472	-0,00090728581135663014	0,080083455204901632
1	1	0	0	0	0	2	130619,44	0,200000003	2,47602129	0,00055613760887748666	0,20020558276084358	0,000495713262	0,024872758281952211	-0,00092803605327881702	0,080639592813779123
1	1	0	0	0	0	2	130629,44	0,200000003	2,45987034	0,00055613814045488838	0,20020577343621766	0,000492480234	0,025428896422407098	-0,0009487863150348713	0,08119573095423401
1	1	0	0	0	0	2	130639,44	0,200000003	2,44074845	0,00055614024979869517	0,20020653278381405	0,000488653779	0,025985036672205795	-0,00096953665549337894	0,081751871204032691
1	1	0	0	0	0	2	130649,44	0,200000003	2,42021704	0,00055614114328639373	0,20020685474067622	0,000484544027	0,026541177815492186	-0,00099028702928911411	0,082308012347319091
1	1	0	0	0	0	2	130659,44	0,200000003	2,3794589	0,00055613921301398016	0,20020616029450502	0,000476382324	0,027097317028506166	-0,0010110373310637901	0,082864151560333069
1	1	0	0	0	0	2	130669,44	0,200000003	2,4616797	0,00055613452834387616	0,2002044738465945	0,000492839317	0,027653451556850042	-0,0010317874580471261	0,083420286088676954
1	1	0	0	0	0	2	130679,44	0,200000003	2,42568326	0,00055613919266644442	0,20020615238221053	0,000485636701	0,028209590749516486	-0,001052537759062608	0,083976425281343398
1	1	0	0	0	0	2	130689,44	0,200000003	2,42926383	0,0005561375517174601	0,20020556149609789	0,000486352132	0,028765728301233949	-0,0010732879988520774	0,084532562833060864
1	1	0	0	0	0	2	130699,44	0,200000003	2,43971992	0,00055612721432662675	0,20020184020217664	0,000488436432	0,029321855515560576	-0,0010940378529395958	0,085088690047387494
1	1	0	0	0	0	2	130709,44	0,200000003	2,38669634	0,00055613358134279648	0,20020413293527344	0,000477826485	0,029877989096903373	-0,0011147879445890482	0,085644823628730291
1	1	0	0	0	0	2	130719,44	0,200000003	2,42535949	0,00055613354120320749	0,20020411848996822	0,000485566969	0,030434122638106579	-0,0011355380347408384	0,086200957169933491
1	1	0	0	0	0	2	130729,44	0,200000003	2,43554902	0,00055613570442464627	0,20020489685673238	0,000487608835	0,030990258342531226	-0,0011562882056053291	0,086757092874358131
1	1	0	0	0	0	2	130739,44	0,200000003	2,44768119	0,0005561355734724137	0,20020484934195712	0,000490037666	0,031546393916003642	-0,001177038371583816	0,087313228447830541
1	1	0	0	0	0	2	130749,44	0,200000003	2,41947436	0,00055613257771978778	0,20020377089232765	0,000484387885	0,03210252649372343	-0,0011977884257867446	0,087869361025550336
1	1	0	0	0	0	2	130759,44	0,200000003	2,47552609	0,00055612976349559104	0,20020275841624742	0,00049560715	0,032658656257219021	-0,0012185383749871843	0,088425490789045926
1	1	0	0	0	0	2	130769,44	0,200000003	2,35188055	0,00055613522552947206	0,20020472483077987	0,000470857602	0,033214791482748486	-0,0012392885279834522	0,088981626014575386
1	1	0	0	0	0	2	130779,44	0,200000003	2,45790863	0,00055613536714265747	0,20020477563805149	0,000492085062	0,033770926849891142	-0,0012600386862634982	0,089537761381718054
1	1	0	0	0	0	2	130789,44	0,200000003	2,45707083	0,0005561339739014704	0,2002042735077991	0,000491916086	0,034327060823792614	-0,0012807887925598426	0,090093895355619533
1	1	0	0	0	0	2	130799,44	0,200000003	2,46615553	0,00055613122432016659	0,20020328367809398	0,000493732456	0,034883192048112787	-0,0013015387962656118	0,090650026579939686
1	1	0	0	0	0	2	130809,44	0,200000003	2,46954584	0,00055613561609387398	0,20020486509557315	0,000494415115	0,035439327664206662	-0,0013222889638343626	0,091206162196033562
1	1	0	0	0	0	2	130819,44	0,200000003	2,4884963	0,0005561402477448185	0,20020653279257642	0,000498213223	0,035995467911951482	-0,0013430393042162373	0,091762302443778381
1	1	0	0	0	0	2	130829,44	0,200000003	2,49301028	0,00055613795503394477	0,20020570743297229	0,00049911486	0,036551605866985427	-0,001363789559053987	0,092318440398812314
1	1	0	0	0	0	2	130839,44	0,200000003	2,47266936	0,00055613144088619283	0,20020336168693504	0,000495036715	0,037107737307871616	-0,0013845395708401254	0,092874571839698509
1	1	0	0	0	0	2	130849,44	0,200000003	2,46006083	0,00055613569149374963	0,2002048918287983	0,000492516207	0,03766387299936537	-0,001405289741222147	0,093430707531192256
1	1	0	0	0	0	2	130859,44	0,200000003	2,44958568	0,00055613469386928602	0,20020453288686378	0,00049041817	0,038220007693234656	-0,0014260398743814584	0,093986842225061542
1	1	0	0	0	0	2	130869,44	0,200000003	2,45766115	0,00055613461311161523	0,20020450436470813	0,000492034829	0,038776142306346272	-0,0014467900045275926	0,094542976838173158
1	1	0	0	0	0	2	130879,44	0,200000003	2,45615649	0,00055613591039511891	0,20020497137520989	0,000491734769	0,039332278216741395	-0,0014675401830771187	0,095099112748568282
1	1	0	0	0	0	2	130889,44	0,200000003	2,5383203	0,00055613959429992576	0,2002062970699553	0,000508187688	0,039888417811041318	-0,0014882904990780861	0,095655252342868198
1	1	0	0	0	0	2	130899,44	0,200000003	2,45368052	0,00055613759599626067	0,20020557743382035	0,000491240527	0,040444555407037574	-0,0015090407405196566	0,096211389938864461
1	1	0	0	0	0	2	130909,44	0,200000003	2,46089888	0,00055613612737092698	0,20020504873915011	0,000492684369	0,041000691534408499	-0,0015297909271648419	0,096767526066235405
1	1	0	0	0	0	2	130919,44	0,200000003	2,47880197	0,00055613312062952256	0,20020396707011917	0,000496266002	0,041556824655038022	-0,0015505410016244624	0,097323659186864922
1	1	0	0	0	0	2	130929,44	0,200000003	2,47000289	0,00055612614633639654	0,20020145638353168	0,000494498177	0,042112950801374419	-0,0015712908158638294	0,097879785333201306
1	1	0	0	0	0	2	130939,44	0,200000003	2,48135424	0,00055613177975101613	0,20020348410236544	0,000496775785	0,042669082581125434	-0,0015920408402934701	0,09843591711295232
1	1	0	0	0	0	2	130949,44	0,200000003	2,48301125	0,00055613018662730848	0,20020291011371802	0,000497106055	0,043225212767752742	-0,0016127908052815235	0,098992047299579635
1	1	0	0	0	0	2	130959,45	0,200000003	2,49617171	0,00055613320974177779	0,20020399841370771	0,000499743561	0,043781345977494522	-0,0016335408830660422	0,099548180509321421
1	1	0	0	0	0	2	130969,45	0,200000003	2,49335313	0,00055613410564677587	0,20020432146451798	0,000499180052	0,044337480083141299	-0,0016542909942779808	0,10010431461496819
1	1	0	0	0	0	2	130979,45	0,200000003	2,53239703	0,00055613686103704902	0,20020531359983318	0,00050699932	0,044893616944178342	-0,0016750412082972352	0,10066045147600523
1	1	0	0	0	0	2	130989,45	0,200000003	2,49201989	0,00055613902629415194	0,20020609302105075	0,000498917594	0,045449755970472493	-0,0016957915031051434	0,10121659050229939
1	1	0	0	0	0	2	130999,45	0,200000003	2,47977328	0,00055613879434681594	0,2002060088314936	0,000496465538	0,046005894764819309	-0,0017165417892587846	0,10177272929664621
1	1	0	0	0	0	2	131009,45	0,200000003	2,49064851	0,00055614132779339942	0,20020692085423722	0,000498645066	0,04656203609261271	-0,0017372921699387242	0,10232887062443962
1	1	0	0	0	0	2	131019,45	0,200000003	2,50173306	0,00055613965156839962	0,20020631774329962	0,000500862778	0,047118175744181114	-0,0017580424880764554	0,10288501027600802
1	1	0	0	0	0	2	131029,45	0,200000003	2,51072288	0,00055613879513906112	0,20020600986250698	0,000502661802	0,047674314539320173	-0,0017787927742596563	0,10344114907114707
1	1	0	0	0	0	2	131039,45	0,200000003	2,49843836	0,00055614289836419955	0,20020748699436634	0,000500206079	0,048230457437684371	-0,001799543213539704	0,10399729196951126
1	1	0	0	0	0	2	131049,45	0,200000003	2,51561761	0,00055613944097359987	0,20020624176169709	0,000503642368	0,048786596878657971	-0,0018202935238198598	0,10455343141048488
1	1	0	0	0	0	2	131059,45	0,200000003	2,48264933	0,00055613878706345952	0,20020600620953709	0,000497041328	0,049342735665721434	-0,0018410438097017494	0,10510957019754832
1	1	0	0	0	0	2	131069,45	0,200000003	2,52218843	0,00055613463077942534	0,20020451008173715	0,000504953496	0,049898870296500864	-0,0018617939405070938	0,10566570482832776
1	1	0	0	0	0	2	131079,45	0,200000003	2,50525665	0,0005561257477402688	0,20020525802712451	0,000501565577	0,050454996044241133	-0,0018825437398743034	0,10622183057606802
1	1	0	0	0	0	2	131089,45	0,200000003	2,52380729	0,00055612657041433786	0,2002055340245648	0,000505280157	0,051011122614655469	-0,0019032935699365885	0,10677795714648235
1	1	0	0	0	0	2	131099,45	0,200000003	2,50022864	0,00055612737353808352	0,20020582315839085	0,000500560331	0,051567249988193555	-0,0019240434299645008	0,10733408452002045
1	1	0	0	0	0	2	131109,45	0,200000003	2,53072095	0,00055612669757919181	0,20020557980390509	0,000506664452	0,052123376685772749	-0,0019447932647714778	0,10789021121759963
1	1	0	0	0	0	2	131119,45	0,200000003	2,46640325	0,00055612401149173581	0,20020461281257219	0,000493785308	0,052679500697264486	-0,00196554299935692	0,10844633522909136
1	1	0	0	0	0	2	131129,45	0,200000003	2,5704124	0,00055612623776247104	0,20020541426991152	0,000514610496	0,053235626935026957	-0,0019862928170075168	0,10900246146685382
1	1	0	0	0	0	2	131139,45	0,200000003	2,55967069	0,00055612764896783565	0,20020592230376323	0,000512461236	0,053791754583994797	-0,0020070426873120832	0,10955858911582166
1	1	0	0	0	0	2	131149,45	0,200000003	2,55761361	0,0005561304473297463	0,20020692971389347	0,000512051978	0,054347885031324538	-0,002027792662027295	0,11011471956315141
1	1	0	0	0	0	2	131159,45	0,200000003	2,56947923	0,00055613299115416077	0,20020784549053942	0,000514429878	0,054904018022478701	-0,0020485427316560157	0,11067085255430557
1	1	0	0	0	0	2	131169,45	0,200000003	2,542377	0,00055613614633927744	0,20020898135700368	0,000509006728	0,055460154168817978	-0,0020692929190089357	0,11122698870064485
1	1	0	0	0	0	2	131179,45	0,200000003	2,57542157	0,00055613362480948365	0,20020807360641997	0,000515620166	0,056016287793627462	-0,0020900430122801885	0,11178312232545432
1	1	0	0	0	0	2	131189,45	0,200000003	2,59035349	0,00055613632016794547	0,2002090439353144	0,000518612214	0,056572424113795405	-0,0021107932061188896	0,11233925864562227
1	1	0	0	0	0	2	131199,45	0,200000003	2,70843744	0,00055612939237223731	0,20020654992924966	0,000542246911	0,057128553506167642	-0,0021315431414722182	0,11289538803799451
1	1	0	0	0	0	2	131209,45	0,200000003	2,78961086	0,00055613036982963488	0,20020690181385773	0,000558499363	0,057684683875997274	-0,0021522931132957965	0,11345151840782416
1	1	0	0	0	0	2	131219,45	0,200000003	2,88293529	0,00055613283467127219	0,20020778915670832	0,000577186118	0,058240816710668544	-0,0021730431770859299	0,11400765124249542
1	1	0	0	0	0	2	131229,45	0,200000003	2,93275928	0,0005561343606842889	0,20020833852130838	0,000587162853	0,058796951071352832	-0,0021937932978136611	0,11456378560317971
1	1	0	0	0	0	2	131239,45	0,200000003	2,98665905	0,00055613702270223034	0,20020929684761738	0,000597956881	0,059353088094055066	-0,0022145435178648611	0,11511992262588195
1	1	0	0	0	0	2	131249,45	0,200000003	3,00819969	0,0005561334820497367	0,20020802221291907	0,000602265703	0,059909221576104794	-0,0022352936058095555	0,11567605610793168
1	1	0	0	0	0	2	131259,45	0,200000003	2,98553538	0,00055613180332382515	0,2002074178716855	0,000597726321	0,060465353379428621	-0,0022560436311187293	0,1162321879112555
1	1	0	0	0	0	2	131269,45	0,200000003	2,95687127	0,00055612900510595898	0,2002064105134113	0,000591984601	0,061021482384534579	-0,0022767935520226326	0,11678831691636147
1	1	0	0	0	0	2	131279,45	0,200000003	2,96313739	0,00055613021438486048	0,20020684585374771	0,000593240373	0,061577612598919437	-0,0022975435180463574	0,11734444713074632
1	1	0	0	0	0	2	131289,45	0,200000003	2,94508195	0,0005561293694757753	0,20020654168652464	0,000589624688	0,062133741968395213	-0,0023182934525453882	0,11790057650022211
1	1	0	0	0	0	2	131299,45	0,200000003	2,94129181	0,00055612834720561901	0,20020617366932595	0,000588864787	0,062689870315600832	-0,002339043348902145	0,11845670484742771
1	1	0	0	0	0	2	131309,45	0,200000003	2,9365685	0,00055613097322814995	0,20020711903728915	0,000587921939	0,063246001288828979	-0,0023597933432393334	0,11901283582065587
1	1	0	0	0	0	2	131319,45	0,200000003	2,93548274	0,0005561241027654873	0,20020464567111763	0,000587697257	0,06380212539159447	-0,0023805430812303222	0,11956895992342134
1	1	0	0	0	0	2	131329,45	0,200000003	2,90062904	0,00055612960983067744	0,20020662821427587	0,000580725144	0,064358255001425139	-0,0024012930246973171	0,12012508953325202
1	1	0	0	0	0	2	131339,45	0,200000003	2,92184591	0,00055612703437192576	0,20020570104927034	0,000584970228	0,064914382035797069	-0,0024220428720704842	0,12068121656762394
1	1	0	0	0	0	2	131349,45	0,200000003	2,84263444	0,00055613391386634784	0,20020817766687475	0,000569118652	0,065470515949663411	-0,0024427929761268371	0,12123735048149027
1	1	0	0	0	0	2	131359,45	0,200000003	2,80553317	0,00055613418205165197	0,20020827421356918	0,000561690948	0,066026650131715059	-0,002463543090189544	0,12179348466354194
1	1	0	0	0	0	2	131369,45	0,200000003	2,79178214	0,00055613478476223027	0,20020849118934339	0,000558938482	0,066582784916477286	-0,0024842932267401936	0,12234961944830416
1	1	0	0	0	0	2	131379,45	0,200000003	2,82002711	0,00055613604967213331	0,20020894655683728	0,000564594637	0,067138920966149427	-0,0025050434104863325	0,12290575549797629
1	1	0	0	0	0	2	131389,45	0,200000003	2,85573792	0,00055612660177052026	0,2002055453127887	0,000571734563	0,067695047567919962	-0,0025257932417185594	0,12346188209974685
1	1	0	0	0	0	2	131399,45	0,200000003	2,85156703	0,00055612821529557306	0,20020612618171683	0,000570901204	0,068251175783215526	-0,002546543133153575	0,1240180103150424
1	1	0	0	0	0	2	131409,45	0,200000003	2,72399807	0,00055612772171199322	0,2002059484916559	0,000545360614	0,068807303504927526	-0,0025672930061723238	0,1245741380367544
1	1	0	0	0	0	2	131419,45	0,200000003	2,68992496	0,00055612391801840736	0,2002045791621792	0,0005385353	0,069363427422945933	-0,0025880427372701507	0,12513026195477282
1	1	0	0	0	0	2	131429,45	0,200000003	2,67973542	0,00055612594068961005	0,2002053073236983	0,000536497275	0,069919553363635546	-0,00260879254383656	0,12568638789546242
1	1	0	0	0	0	2	131439,45	0,200000003	2,6809926	0,00055612258333050534	0,2002040986746097	0,000536745705	0,070475675946966054	-0,0026295422251353862	0,12624251047879293
1	1	0	0	0	0	2	131449,45	0,200000003	2,679564	0,00055612163095010656	0,20020375581771978	0,0005364588	0,071031797577916147	-0,0026502918708996202	0,12679863210974304
1	1	0	0	0	0	2	131459,45	0,200000003	2,66394639	0,00055612127324524864	0,20020362704399104	0,000533331709	0,071587918851161408	-0,0026710415033174045	0,12735475338298829
1	1	0	0	0	0	2	131469,45	0,200000003	2,64916682	0,00055611947163525549	0,20020297846449504	0,000530371093	0,072144038322796659	-0,0026917910685146976	0,12791087285462355
1	1	0	0	0	0	2	131479,45	0,200000003	2,67143154	0,00055612341720776429	0,2002043988703759	0,000534832361	0,072700161740004416	-0,0027125407809266058	0,12846699627183131
1	1	0	0	0	0	2	131489,45	0,200000003	2,64145327	0,00055612466619660454	0,20020484850628813	0,000528831733	0,073256286406201024	-0,002733290539939967	0,12902312093802792
1	1	0	0	0	0	2	131499,45	0,200000003	2,55620432	0,00055612322965678246	0,20020433135203306	0,000511763152	0,073812409635857805	-0,0027540402453540966	0,1295792441676847
1	1	0	0	0	0	2	131509,45	0,200000003	2,54233885	0,00055612154466493254	0,20020372475506202	0,000508985715	0,074368531180522739	-0,0027747898878989142	0,13013536571234965
1	1	0	0	0	0	2	131519,45	0,200000003	2,53734899	0,00055612718361202208	0,20020575477569661	0,000507991877	0,074924658364134758	-0,0027955397408404294	0,13069149289596168
1	1	0	0	0	0	2	131529,45	0,200000003	2,52601671	0,00055612564668390483	0,20020520148166096	0,000505721662	0,075480784010818662	-0,0028162895364370902	0,13124761854264558
1	1	0	0	0	0	2	131539,45	0,200000003	2,5142653	0,0005561279755896992	0,20020603988761578	0,00050337112	0,076036911986408358	-0,0028370394189283571	0,13180374651823528
1	1	0	0	0	0	2	131549,45	0,200000003	2,52654982	0,00055612792539844909	0,20020602181876854	0,000505830511	0,07659303991180681	-0,0028577892995469219	0,13235987444363373
1	1	0	0	0	0	2	131559,45	0,200000003	2,5276165	0,00055612992204063475	0,20020674060984288	0,000506045879	0,07714916983384745	-0,0028785392546628909	0,13291600436567435
1	1	0	0	0	0	2	131569,45	0,200000003	2,50508523	0,00055613086693071661	0,20020708077021914	0,000501535775	0,077705300700778163	-0,0028992892450339782	0,13347213523260507
1	1	0	0	0	0	2	131579,45	0,200000003	2,50232363	0,00055612892721345024	0,20020638247211254	0,000500981172	0,078261429627991616	-0,0029200391630316077	0,13402826415981853
1	1	0	0	0	0	2	131589,45	0,200000003	2,46604133	0,00055612634719825466	0,20020545366678742	0,000493714935	0,078817555975189875	-0,0029407889847654003	0,13458439050701678
1	1	0	0	0	0	2	131599,45	0,200000003	2,47855449	0,00055612626795470714	0,20020542513911482	0,000496220076	0,079373682243144576	-0,0029615388035425101	0,13514051677497149
1	1	0	0	0	0	2	131609,45	0,200000003	2,51757932	0,00055612491711643008	0,2002049388374111	0,000504031836	0,079929807160261005	-0,0029822885719180275	0,13569664169208792
1	1	0	0	0	0	2	131619,45	0,200000003	2,5138464	0,00055612707396348326	0,20020571530222877	0,000503286428	0,080485934234224486	-0,0030030384207684083	0,13625276876605141
1	1	0	0	0	0	2	131629,45	0,200000003	2,52453113	0,00055612769187572922	0,20020593775060256	0,000505426142	0,081042061926100211	-0,0030237882926739258	0,13680889645792715
1	1	0	0	0	0	2	131639,45	0,200000003	2,55708027	0,00055612935740666259	0,20020653734164474	0,000511944178	0,081598191283506867	-0,0030445382267226419	0,13736502581533382
1	1	0	0	0	0	2	131649,45	0,200000003	2,59460068	0,00055613190145128307	0,20020745319756483	0,000519458379	0,082154323184958157	-0,0030652882556930835	0,13792115771678512
1	1	0	0	0	0	2	131659,45	0,200000003	2,63012099	0,00055612544289148506	0,20020512811640134	0,00052656373	0,082710448627849651	-0,003086038043685975	0,13847728315967661
1	1	0	0	0	0	2	131669,45	0,200000003	2,41145587	0,00055612397751543245	0,20020460058110496	0,000482784555	0,083266572605365094	-0,0031067877770037165	0,13903340713719203
1	1	0	0	0	0	2	131679,45	0,200000003	2,60442829	0,00055612430319190029	0,20020471782461498	0,000521418813	0,083822696908556979	-0,0031275375224728838	0,13958953144038394
1	1	0	0	0	0	2	131689,45	0,200000003	2,60656142	0,00055613049846722022	0,20020694812338122	0,000521851704	0,084378827407024192	-0,003148287499096103	0,14014566193885117
1	1	0	0	0	0	2	131699,45	0,200000003	2,59324837	0,00055613024178644019	0,20020685571831488	0,000519186084	0,084934957648810637	-0,0031690374661422176	0,14070179218063762
1	1	0	0	0	0	2	131709,45	0,200000003	2,61077046	0,00055613093895216781	0,20020710669793757	0,000522694783	0,085491088587762803	-0,0031897874592005229	0,14125792311958976
1	1	0	0	0	0	2	131719,45	0,200000003	2,60595202	0,00055612769447598182	0,20020593868669334	0,000521727081	0,086047216282238784	-0,0032105373312030592	0,14181405081406576
1	1	0	0	0	0	2	131729,45	0,200000003	2,59122944	0,00055612839031302272	0,20020618918798886	0,000518780143	0,086603344672551808	-0,0032312872291682118	0,14237017920437878
1	1	0	0	0	0	2	131739,45	0,200000003	2,64017725	0,00055612124307205274	0,20020361618164227	0,000528573059	0,087159465915623859	-0,0032520368604601933	0,14292630044745083
1	1	0	0	0	0	2	131749,45	0,200000003	2,5533855	0,00055612489172899066	0,20020492969793437	0,000511200342	0,087715590807352845	-0,003272786627888471	0,14348242533917982
1	1	0	0	0	0	2	131759,45	0,200000003	2,51129413	0,00055612322953426176	0,2002043313079256	0,000502771989	0,088271714036887104	-0,0032935363332980288	0,1440385485687141
1	1	0	0	0	0	2	131769,45	0,200000003	2,43133974	0,00055611878969437542	0,20020273296581661	0,000486760866	0,088827832826581478	-0,003314285873051191	0,14459466735840848
1	1	0	0	0	0	2	131779,45	0,200000003	2,40025711	0,00055612571858035187	0,20020522736437786	0,000480544026	0,08938395854516183	-0,0033350356713304051	0,14515079307698883
1	1	0	0	0	0	2	131789,45	0,200000003	2,4442718	0,00055612660234835411	0,2002055455208089	0,000489356753	0,089940085147510182	-0,0033557855025841914	0,14570691967933718
1	1	0	0	0	0	2	131799,45	0,200000003	2,4749167	0,00055612505560699437	0,20020498869400646	0,000495490676	0,090496210203117184	-0,0033765352761269779	0,14626304473494416
1	1	0	0	0	0	2	131809,45	0,200000003	2,44031048	0,00055612573076287898	0,20020523175008691	0,000488562917	0,091052335933880064	-0,0033972850748607386	0,14681917046570704
1	1	0	0	0	0	2	131819,45	0,200000003	2,40966558	0,00055612656229237715	0,20020553110065939	0,000482428382	0,091608462496172454	-0,0034180349046199827	0,14737529702799942
1	1	0	0	0	0	2	131829,45	0,200000003	2,45390916	0,00055612526513967245	0,20020506412575882	0,000491285056	0,092164587761312128	-0,0034387846859807155	0,1479314222931391
1	1	0	0	0	0	2	131839,45	0,200000003	2,48362064	0,00055612075640261178	0,20020344098067088	0,000497229397	0,092720708517714739	-0,0034595342991144064	0,1484875430495417
1	1	0	0	0	0	2	131849,45	0,200000003	2,48245883	0,0005561210044109159	0,2002035302636464	0,000496997032	0,09327682952212567	-0,0034802839215016205	0,14904366405395261
1	1	0	0	0	0	2	131859,45	0,200000003	2,48424911	0,00055612780387285683	0,20020597806956221	0,000497361529	0,093832957325998528	-0,0035010337975859014	0,14959979185782547
1	1	0	0	0	0	2	131869,45	0,200000003	2,48800111	0,00055612807614025146	0,2002060760858089	0,000498112931	0,094389085402138778	-0,0035217836838288454	0,1501559199339657
1	1	0	0	0	0	2	131879,45	0,200000003	2,47552609	0,00055612361795951923	0,20020447114099642	0,000495611399	0,094945209020098304	-0,0035425334037310714	0,15071204355192522
1	1	0	0	0	0	2	131889,45	0,200000003	2,47150755	0,00055612072612676365	0,20020343008136726	0,000494804292	0,095501329746225062	-0,0035632830157351296	0,15126816427805197
1	1	0	0	0	0	2	131899,45	0,200000003	2,48609662	0,00055611526267230515	0,20020146323806995	0,000497720204	0,09605744500889737	-0,0035840324238903565	0,15182427954072429
1	1	0	0	0	0	2	131909,45	0,200000003	2,51504612	0,00055611743234263526	0,20020224431926662	0,000503517862	0,09661356244124	-0,0036047819129988998	0,15238039697306691
1	1	0	0	0	0	2	131919,45	0,200000003	2,52424526	0,00055612094180120365	0,20020350772415354	0,000505362754	0,097169683383041203	-0,0036255315330500608	0,15293651791486813
1	1	0	0	0	0	2	131929,45	0,200000003	2,53959632	0,00055612163654632032	0,20020375783235645	0,0005084367	0,09772580501958752	-0,003646281179023097	0,15349263955141443
1	1	0	0	0	0	2	131939,45	0,200000003	2,54382443	0,00055611906043688467	0,20020283043310467	0,000509280828	0,09828192408002441	-0,0036670307288780262	0,1540487586118513
1	1	0	0	0	0	2	131949,45	0,200000003	2,48301125	0,0005561165211631191	0,2002019162946921	0,000497103611	0,098838040601187533	-0,0036877801839892371	0,1546048751330144
1	1	0	0	0	0	2	131959,45	0,200000003	2,46964097	0,00055612117566251085	0,20020359191421098	0,000494431006	0,099394161776850035	-0,0037085298127660781	0,15516099630867693
1	1	0	0	0	0	2	131969,45	0,200000003	2,47783065	0,00055612509270426298	0,20020500204902109	0,000496074092	0,099950286869554304	-0,0037292795876930144	0,15571712140138115
1	1	0	0	0	0	2	131979,45	0,200000003	2,47118378	0,00055611969749298362	0,20020305977326442	0,000494738575	0,1005064065670473	-0,0037500291613173632	0,15627324109887414
1	1	0	0	0	0	2	131989,45	0,200000003	2,47028852	0,00055612409572800006	0,20020464313762259	0,000494563254	0,1010625306627753	-0,0037707788990457741	0,15682936519460214
1	1	0	0	0	0	2	131999,45	0,200000003	2,48219228	0,00055612094594620992	0,20020350921635558	0,000496943598	0,1016186516087215	-0,0037915285192515904	0,15738548614054835
1	1	0	0	0	0	2	132009,45	0,200000003	2,50832295	0,0005561275586270624	0,20020588978108998	0,000502181007	0,10217477916734856	-0,0038122783861854214	0,15794161369917539
1	1	0	0	0	0	2	132019,45	0,200000003	2,48802018	0,00055612315484136339	0,2002043044184864	0,000498112349	0,10273090232218992	-0,003833028088808087	0,15849773685401674
1	1	0	0	0	0	2	132029,45	0,200000003	2,49689555	0,00055612693724532922	0,20020566608370106	0,000499892631	0,10328702925943525	-0,0038537779325573299	0,15905386379126208
1	1	0	0	0	0	2	132039,45	0,200000003	2,49514341	0,00055612527456465702	0,2002050675187527	0,000499540358	0,1038431545339999	-0,0038745277142697203	0,15960998906582675
1	1	0	0	0	0	2	132049,45	0,200000003	2,48773456	0,00055611933901160947	0,20020293071998992	0,000498051755	0,1043992738730115	-0,003895277274518647	0,16016610840483837
1	1	0	0	0	0	2	132059,45	0,200000003	2,48407769	0,00055612211910718022	0,20020393155423875	0,000497322122	0,10495539599211869	-0,0039160269384966778	0,16072223052394554
1	1	0	0	0	0	2	132069,45	0,200000003	2,51062751	0,00055612354879991885	0,20020444624354416	0,00050263881	0,10551151954091861	-0,0039367766558184659	0,16127835407274547
1	1	0	0	0	0	2	132079,45	0,200000003	2,51239896	0,0005561162728013264	0,20020182688446074	0,000502986833	0,10606763581371994	-0,0039575261016629645	0,16183447034554678
1	1	0	0	0	0	2	132089,45	0,200000003	2,55262351	0,00055611964209708902	0,2002030398307455	0,000511043007	0,10662375545581702	-0,0039782756732204186	0,16239058998764387
1	1	0	0	0	0	2	132099,45	0,200000003	2,54020572	0,00055611987440370848	0,20020312346111542	0,000508557132	0,10717987533022074	-0,0039990252534455437	0,16294670986204758
1	1	0	0	0	0	2	132109,45	0,200000003	2,52639747	0,00055612351414892403	0,20020443376918797	0,000505795993	0,10773599884436965	-0,0040197749694744576	0,16350283337619654
1	1	0	0	0	0	2	132119,45	0,200000003	2,52298832	0,00055612696822318771	0,20020567723572835	0,000505116594	0,10829212581259285	-0,0040405248143795258	0,16405896034441971
1	1	0	0	0	0	2	132129,45	0,200000003	2,49413395	0,00055611726971632909	0,20020218577380554	0,000499331043	0,10884824308230917	-0,004061274297420263	0,16461507761413603
1	1	0	0	0	0	2	132139,45	0,200000003	2,50268555	0,00055612065424273408	0,2002034042031207	0,00050104619	0,1094043637365519	-0,0040820239067422317	0,16517119826837878
1	1	0	0	0	0	2	132149,45	0,200000003	2,59913349	0,00055612109676831302	0,20020356351230419	0,000520355767	0,10996048483332022	-0,0041027735325754246	0,1657273193651471
1	1	0	0	0	0	2	132159,45	0,200000003	2,60772324	0,00055612516141931213	0,20020502678643491	0,000522079295	0,11051660999473954	-0,0041235233100662112	0,1662834445265664
1	1	0	0	0	0	2	132169,45	0,200000003	2,50693274	0,00055612538801050848	0,20020510835925283	0,000501900737	0,11107273538275003	-0,0041442730960114189	0,1668395699145769
1	1	0	0	0	0	2	132179,45	0,200000003	2,48291588	0,000556118046147128	0,20020246528884941	0,000497085857	0,11162885342889715	-0,0041650226080218336	0,16739568796072403
1	1	0	0	0	0	2	132189,45	0,200000003	2,46884108	0,00055611674852089747	0,20020199814347949	0,000494266918	0,11218497017741805	-0,0041857720716160691	0,16795180470924496
1	1	0	0	0	0	2	132199,45	0,200000003	2,47981143	0,00055611859834111392	0,20020266407865325	0,00049646484	0,11274108877575915	-0,0042065216042295834	0,16850792330758608
1	1	0	0	0	0	2	132209,45	0,200000003	2,50470424	0,00055611909452080717	0,20020284270331488	0,000501448929	0,11329720787027997	-0,0042272711553562291	0,16906404240210688
1	1	0	0	0	0	2	132219,45	0,200000003	2,5335207	0,0005561234919470217	0,20020442577650442	0,000507222081	0,11385333136222698	-0,0042480208705567597	0,16962016589405389
1	1	0	0	0	0	2	132229,45	0,200000003	2,71763659	0,00055612104243785146	0,20020354395334109	0,000544080453	0,11440945240466482	-0,004268770494362809	0,17017628693649174
1	1	0	0	0	0	2	132239,45	0,200000003	2,71089435	0,00055611975494358266	0,20020308045547686	0,000542729395	0,11496557215960842	-0,0042895200701307181	0,17073240669143533
1	1	0	0	0	0	2	132249,45	0,200000003	2,95898533	0,00055612110907501651	0,20020356794271674	0,000592399447	0,11552169326868344	-0,0043102696964230906	0,17128852780051034
1	1	0	0	0	0	2	132259,45	0,200000003	3,04231095	0,00055612015286915834	0,20020322370866163	0,000609080482	0,11607781342155259	-0,0043310192870381357	0,17184464795337949
1	1	0	0	0	0	2	132269,45	0,200000003	3,05021501	0,00055611706956393197	0,20020211371895382	0,000610659481	0,11663393049111651	-0,0043517687626109184	0,17240076502294342
1	1	0	0	0	0	2	132279,45	0,200000003	3,04577732	0,00055610966870354291	0,20019944940963062	0,000609762967	0,11719004015982006	-0,0043725179620476493	0,17295687469164698
1	1	0	0	0	0	2	132289,45	0,200000003	2,8952961	0,00055611216603881786	0,20020034845018896	0,00057963928	0,11774615232585886	-0,0043932672546633165	0,17351298685768579
1	1	0	0	0	0	2	132299,45	0,200000003	2,81366563	0,00055611342589557178	0,20020080199854941	0,000563298119	0,11830226575175445	-0,0044140165942859334	0,17406910028358134
1	1	0	0	0	0	2	132309,45	0,200000003	2,77128887	0,0005561122343614697	0,20020037304633978	0,000554813072	0,11885837798611592	-0,0044347658894508122	0,17462521251794282
1	1	0	0	0	0	2	132319,45	0,200000003	2,76123261	0,0005561174834022919	0,20020226270074013	0,000552805024	0,11941449546951821	-0,0044555153804644595	0,17518133000134512
1	1	0	0	0	0	2	132329,45	0,200000003	2,77825952	0,00055611755563649869	0,2002022887050505	0,000556213898	0,11997061302515472	-0,0044762648741732634	0,17573744755698163
1	1	0	0	0	0	2	132339,45	0,200000003	2,82094121	0,00055612199005070656	0,20020388509391555	0,000564763381	0,12052673501520541	-0,0044970145333360224	0,17629356954703232
1	1	0	0	0	0	2	132349,45	0,200000003	3,04044437	0,00055612754938254758	0,20020588645306518	0,000608714879	0,12108286256458795	-0,004517764399924928	0,17684969709641488
1	1	0	0	0	0	2	132359,45	0,200000003	3,12512207	0,00055612247484508486	0,20020405961986442	0,000625662098	0,12163898503943304	-0,0045385140771760179	0,17740581957125994
1	1	0	0	0	0	2	132369,45	0,200000003	3,15405273	0,00055612395761989888	0,20020459341871395	0,000631455856	0,12219510899705293	-0,0045592638097514298	0,17796194352887984
1	1	0	0	0	0	2	132379,45	0,200000003	3,18117404	0,0005561273272641831	0,20020580649978928	0,000636889541	0,1227512363243171	-0,0045800136680528006	0,17851807085614403
1	1	0	0	0	0	2	132389,45	0,200000003	3,19993424	0,00055612449452032646	0,20020478670283763	0,000640642131	0,12330736081883746	-0,0046007634206606893	0,17907419535066435
1	1	0	0	0	0	2	132399,45	0,200000003	3,21644688	0,00055612505469885146	0,20020498836707507	0,000643948733	0,12386348587353629	-0,0046215131941695917	0,1796303204053632
1	1	0	0	0	0	2	132409,45	0,200000003	3,22920752	0,00055612418640239373	0,20020467578039923	0,00064650242	0,12441961005993869	-0,0046422629352811859	0,18018644459176557
1	1	0	0	0	0	2	132419,45	0,200000003	3,24804401	0,00055611430895742445	0,20020111990076662	0,000650262053	0,12497572436889613	-0,0046630123078520282	0,18074255890072301
1	1	0	0	0	0	2	132429,45	0,200000003	3,26107121	0,00055610844292160544	0,20019900812820218	0,000652863237	0,12553183281181773	-0,0046837614615531878	0,18129866734364461
1	1	0	0	0	0	2	132439,45	0,200000003	3,27484131	0,00055611326283547616	0,20020074329692416	0,000655625656	0,1260879460746532	-0,0047045107950918131	0,1818547806064801
1	1	0	0	0	0	2	132449,45	0,200000003	3,29375386	0,00055611451329456442	0,2002011934621255	0,000659413461	0,12664406058794778	-0,0047252601752867488	0,18241089511977466
1	1	0	0	0	0	2	132459,45	0,200000003	3,30131507	0,00055611941742069197	0,20020295894725517	0,00066093303	0,12720018000536848	-0,0047460097384612243	0,18296701453719536
1	1	0	0	0	0	2	132469,45	0,200000003	3,31725645	0,00055611850366989766	0,2002026299970207	0,00066412345	0,12775629850903838	-0,0047667592675424288	0,18352313304086525
1	1	0	0	0	0	2	132479,45	0,200000003	3,34009242	0,00055611701251980333	0,20020209318307072	0,000668693508	0,12831241552155819	-0,0047875087409868192	0,18407925005338509
1	1	0	0	0	0	2	132489,45	0,200000003	3,36330914	0,00055611850574447046	0,20020263074386682	0,000673343311	0,12886853402730267	-0,0048082582701454278	0,18463536855912954
1	1	0	0	0	0	2	132499,45	0,200000003	3,37626052	0,00055611562183996045	0,2002015925384056	0,000675932737	0,12942464964914262	-0,0048290076917016826	0,1851914841809695
1	1	0	0	0	0	2	132509,45	0,200000003	3,38515472	0,00055612119247681568	0,20020359796735974	0,000677720178	0,12998077084161944	-0,004849757321105888	0,1857476053734463
1	1	0	0	0	0	2	132519,45	0,200000003	3,39503956	0,0005561214311536816	0,20020368389101802	0,000679699413	0,13053689227277312	-0,0048705069594154483	0,1863037268046
1	1	0	0	0	0	2	132529,45	0,200000003	3,41261888	0,00055611925151199091	0,20020289922013219	0,000683216203	0,13109301152428512	-0,0048912565163996474	0,186859846056112
1	1	0	0	0	0	2	132539,45	0,200000003	3,44153047	0,00055612037611173261	0,20020330407597581	0,00068900577	0,13164913190039686	-0,0049120061153441741	0,18741596643222374
1	1	0	0	0	0	2	132549,45	0,200000003	3,47547007	0,00055611782205849882	0,20020238461695552	0,000695797382	0,13220524972245538	-0,0049327556189935411	0,18797208425428224
1	1	0	0	0	0	2	132556,02	0,200000003	3,50011539	0,00036564958232144512	0,20020354229168611	0,000700735487	0,1325708993047768	-0,0049463984965310458	0,18833773383660368