LTO 800°C Ofen  Original Data
 3151 
 12            379 
 12.02         352 
 12.04         338 
 12.06         376 
 12.08         330 
 12.1          392 
 12.12         346 
 12.14         413 
 12.16         331 
 12.18         407 
 12.2          363 
 12.22         365 
 12.24         342 
 12.26         418 
 12.28         398 
 12.3          405 
 12.32         350 
 12.34         364 
 12.36         398 
 12.38         370 
 12.4          375 
 12.42         366 
 12.44         376 
 12.46         325 
 12.48         372 
 12.5          368 
 12.52         412 
 12.54         363 
 12.56         357 
 12.58         396 
 12.6          370 
 12.62         375 
 12.64         361 
 12.66         372 
 12.68         329 
 12.7          401 
 12.72         331 
 12.74         377 
 12.76         388 
 12.78         394 
 12.8          347 
 12.82         369 
 12.84         341 
 12.86         396 
 12.88         367 
 12.9          366 
 12.92         380 
 12.94         383 
 12.96         356 
 12.98         379 
 13            402 
 13.02         357 
 13.04         386 
 13.06         347 
 13.08         419 
 13.1          368 
 13.12         420 
 13.14         386 
 13.16         375 
 13.18         314 
 13.2          353 
 13.22         369 
 13.24         353 
 13.26         391 
 13.28         323 
 13.3          316 
 13.32         296 
 13.34         345 
 13.36         338 
 13.38         357 
 13.4          326 
 13.42         391 
 13.44         330 
 13.46         349 
 13.48         304 
 13.5          345 
 13.52         333 
 13.54         334 
 13.56         324 
 13.58         315 
 13.6          318 
 13.62         317 
 13.64         330 
 13.66         346 
 13.68         360 
 13.7          318 
 13.72         347 
 13.74         308 
 13.76         305 
 13.78         308 
 13.8          337 
 13.82         288 
 13.84         317 
 13.86         300 
 13.88         299 
 13.9          318 
 13.92         338 
 13.94         323 
 13.96         291 
 13.98         319 
 14            286 
 14.02         345 
 14.04         270 
 14.06         336 
 14.08         309 
 14.1          282 
 14.12         282 
 14.14         291 
 14.16         291 
 14.18         316 
 14.2          298 
 14.22         269 
 14.24         274 
 14.26         299 
 14.28         278 
 14.3          285 
 14.32         281 
 14.34         264 
 14.36         308 
 14.38         246 
 14.4          270 
 14.42         256 
 14.44         302 
 14.46         301 
 14.48         271 
 14.5          252 
 14.52         241 
 14.54         285 
 14.56         273 
 14.58         254 
 14.6          265 
 14.62         254 
 14.64         250 
 14.66         243 
 14.68         242 
 14.7          246 
 14.72         248 
 14.74         237 
 14.76         215 
 14.78         235 
 14.8          258 
 14.82         259 
 14.84         227 
 14.86         246 
 14.88         248 
 14.9          228 
 14.92         221 
 14.94         216 
 14.96         257 
 14.98         198 
 15            255 
 15.02         216 
 15.04         265 
 15.06         202 
 15.08         220 
 15.1          254 
 15.12         215 
 15.14         195 
 15.16         238 
 15.18         209 
 15.2          233 
 15.22         217 
 15.24         220 
 15.26         222 
 15.28         195 
 15.3          195 
 15.32         192 
 15.34         232 
 15.36         188 
 15.38         215 
 15.4          217 
 15.42         213 
 15.44         233 
 15.46         226 
 15.48         213 
 15.5          195 
 15.52         217 
 15.54         198 
 15.56         212 
 15.58         205 
 15.6          218 
 15.62         208 
 15.64         218 
 15.66         188 
 15.68         186 
 15.7          190 
 15.72         201 
 15.74         194 
 15.76         191 
 15.78         207 
 15.8          202 
 15.82         178 
 15.84         208 
 15.86         193 
 15.88         193 
 15.9          204 
 15.92         191 
 15.94         175 
 15.96         193 
 15.98         182 
 16            177 
 16.02         179 
 16.04         177 
 16.06         173 
 16.08         161 
 16.1          177 
 16.12         176 
 16.14         191 
 16.16         184 
 16.18         160 
 16.2          193 
 16.22         157 
 16.24         162 
 16.26         174 
 16.28         170 
 16.3          176 
 16.32         184 
 16.34         189 
 16.36         191 
 16.38         167 
 16.4          176 
 16.42         171 
 16.44         162 
 16.46         192 
 16.48         156 
 16.5          166 
 16.52         167 
 16.54         166 
 16.56         147 
 16.58         162 
 16.6          154 
 16.62         170 
 16.64         171 
 16.66         176 
 16.68         153 
 16.7          154 
 16.72         166 
 16.74         148 
 16.76         151 
 16.78         185 
 16.8          182 
 16.82         158 
 16.84         188 
 16.86         150 
 16.88         178 
 16.9          169 
 16.92         157 
 16.94         155 
 16.96         180 
 16.98         167 
 17            163 
 17.02         166 
 17.04         141 
 17.06         155 
 17.08         128 
 17.1          185 
 17.12         132 
 17.14         148 
 17.16         153 
 17.18         141 
 17.2          149 
 17.22         155 
 17.24         145 
 17.26         158 
 17.28         138 
 17.3          147 
 17.32         147 
 17.34         148 
 17.36         155 
 17.38         153 
 17.4          168 
 17.42         160 
 17.44         149 
 17.46         133 
 17.48         137 
 17.5          142 
 17.52         148 
 17.54         151 
 17.56         128 
 17.58         123 
 17.6          155 
 17.62         159 
 17.64         154 
 17.66         135 
 17.68         160 
 17.7          149 
 17.72         143 
 17.74         139 
 17.76         129 
 17.78         127 
 17.8          139 
 17.82         167 
 17.84         135 
 17.86         154 
 17.88         157 
 17.9          139 
 17.92         160 
 17.94         146 
 17.96         141 
 17.98         139 
 18            149 
 18.02         138 
 18.04         129 
 18.06         145 
 18.08         150 
 18.1          155 
 18.12         147 
 18.14         183 
 18.16         177 
 18.18         174 
 18.2          229 
 18.22         261 
 18.24         303 
 18.26         384 
 18.28         493 
 18.3          578 
 18.32         808 
 18.34         1054 
 18.36         1120 
 18.38         1110 
 18.4          1205 
 18.42         988 
 18.44         783 
 18.46         537 
 18.48         376 
 18.5          256 
 18.52         183 
 18.54         150 
 18.56         142 
 18.58         155 
 18.6          138 
 18.62         120 
 18.64         144 
 18.66         125 
 18.68         113 
 18.7          122 
 18.72         130 
 18.74         139 
 18.76         124 
 18.78         134 
 18.8          112 
 18.82         131 
 18.84         114 
 18.86         112 
 18.88         114 
 18.9          117 
 18.92         122 
 18.94         101 
 18.96         110 
 18.98         96 
 19            111 
 19.02         106 
 19.04         110 
 19.06         138 
 19.08         89 
 19.1          106 
 19.12         109 
 19.14         124 
 19.16         120 
 19.18         114 
 19.2          112 
 19.22         124 
 19.24         113 
 19.26         118 
 19.28         102 
 19.3          107 
 19.32         114 
 19.34         101 
 19.36         95 
 19.38         89 
 19.4          112 
 19.42         98 
 19.44         115 
 19.46         95 
 19.48         106 
 19.5          108 
 19.52         99 
 19.54         118 
 19.56         118 
 19.58         110 
 19.6          107 
 19.62         112 
 19.64         108 
 19.66         119 
 19.68         105 
 19.7          79 
 19.72         98 
 19.74         107 
 19.76         103 
 19.78         97 
 19.8          99 
 19.82         128 
 19.84         102 
 19.86         93 
 19.88         100 
 19.9          99 
 19.92         104 
 19.94         111 
 19.96         104 
 19.98         113 
 20            101 
 20.02         114 
 20.04         89 
 20.06         94 
 20.08         107 
 20.1          87 
 20.12         86 
 20.14         96 
 20.16         91 
 20.18         110 
 20.2          97 
 20.22         102 
 20.24         108 
 20.26         102 
 20.28         74 
 20.3          95 
 20.32         112 
 20.34         94 
 20.36         97 
 20.38         104 
 20.4          90 
 20.42         110 
 20.44         90 
 20.46         99 
 20.48         93 
 20.5          105 
 20.52         95 
 20.54         83 
 20.56         97 
 20.58         109 
 20.6          99 
 20.62         89 
 20.64         93 
 20.66         98 
 20.68         107 
 20.7          103 
 20.72         87 
 20.74         90 
 20.76         90 
 20.78         84 
 20.8          104 
 20.82         98 
 20.84         108 
 20.86         101 
 20.88         92 
 20.9          92 
 20.92         106 
 20.94         103 
 20.96         94 
 20.98         97 
 21            98 
 21.02         101 
 21.04         91 
 21.06         91 
 21.08         93 
 21.1          92 
 21.12         111 
 21.14         78 
 21.16         88 
 21.18         64 
 21.2          90 
 21.22         88 
 21.24         79 
 21.26         67 
 21.28         94 
 21.3          72 
 21.32         72 
 21.34         91 
 21.36         91 
 21.38         94 
 21.4          85 
 21.42         94 
 21.44         93 
 21.46         91 
 21.48         75 
 21.5          73 
 21.52         77 
 21.54         78 
 21.56         75 
 21.58         80 
 21.6          101 
 21.62         90 
 21.64         87 
 21.66         85 
 21.68         83 
 21.7          84 
 21.72         83 
 21.74         101 
 21.76         85 
 21.78         83 
 21.8          83 
 21.82         92 
 21.84         82 
 21.86         77 
 21.88         73 
 21.9          90 
 21.92         75 
 21.94         75 
 21.96         90 
 21.98         97 
 22            85 
 22.02         97 
 22.04         62 
 22.06         89 
 22.08         91 
 22.1          90 
 22.12         98 
 22.14         83 
 22.16         73 
 22.18         86 
 22.2          83 
 22.22         89 
 22.24         86 
 22.26         76 
 22.28         78 
 22.3          75 
 22.32         96 
 22.34         74 
 22.36         90 
 22.38         89 
 22.4          90 
 22.42         91 
 22.44         78 
 22.46         86 
 22.48         78 
 22.5          72 
 22.52         70 
 22.54         76 
 22.56         85 
 22.58         72 
 22.6          84 
 22.62         83 
 22.64         64 
 22.66         88 
 22.68         60 
 22.7          68 
 22.72         78 
 22.74         73 
 22.76         79 
 22.78         87 
 22.8          66 
 22.82         67 
 22.84         87 
 22.86         87 
 22.88         80 
 22.9          91 
 22.92         79 
 22.94         86 
 22.96         66 
 22.98         71 
 23            75 
 23.02         81 
 23.04         68 
 23.06         87 
 23.08         72 
 23.1          75 
 23.12         80 
 23.14         84 
 23.16         73 
 23.18         78 
 23.2          80 
 23.22         72 
 23.24         61 
 23.26         77 
 23.28         81 
 23.3          68 
 23.32         77 
 23.34         71 
 23.36         76 
 23.38         86 
 23.4          55 
 23.42         84 
 23.44         88 
 23.46         70 
 23.48         78 
 23.5          60 
 23.52         74 
 23.54         78 
 23.56         55 
 23.58         76 
 23.6          74 
 23.62         69 
 23.64         85 
 23.66         60 
 23.68         53 
 23.7          90 
 23.72         76 
 23.74         76 
 23.76         61 
 23.78         67 
 23.8          76 
 23.82         55 
 23.84         74 
 23.86         72 
 23.88         81 
 23.9          65 
 23.92         56 
 23.94         79 
 23.96         47 
 23.98         66 
 24            60 
 24.02         88 
 24.04         73 
 24.06         70 
 24.08         66 
 24.1          61 
 24.12         75 
 24.14         62 
 24.16         58 
 24.18         70 
 24.2          67 
 24.22         68 
 24.24         63 
 24.26         86 
 24.28         75 
 24.3          64 
 24.32         81 
 24.34         77 
 24.36         67 
 24.38         73 
 24.4          61 
 24.42         73 
 24.44         70 
 24.46         62 
 24.48         71 
 24.5          69 
 24.52         55 
 24.54         81 
 24.56         52 
 24.58         79 
 24.6          74 
 24.62         63 
 24.64         70 
 24.66         76 
 24.68         67 
 24.7          65 
 24.72         68 
 24.74         67 
 24.76         49 
 24.78         59 
 24.8          75 
 24.82         60 
 24.84         69 
 24.86         77 
 24.88         70 
 24.9          74 
 24.92         64 
 24.94         67 
 24.96         57 
 24.98         63 
 25            60 
 25.02         74 
 25.04         70 
 25.06         65 
 25.08         73 
 25.1          64 
 25.12         56 
 25.14         60 
 25.16         68 
 25.18         65 
 25.2          68 
 25.22         62 
 25.24         68 
 25.26         76 
 25.28         61 
 25.3          56 
 25.32         57 
 25.34         60 
 25.36         62 
 25.38         70 
 25.4          76 
 25.42         56 
 25.44         73 
 25.46         71 
 25.48         59 
 25.5          72 
 25.52         56 
 25.54         56 
 25.56         60 
 25.58         53 
 25.6          46 
 25.62         78 
 25.64         68 
 25.66         64 
 25.68         73 
 25.7          70 
 25.72         84 
 25.74         59 
 25.76         53 
 25.78         51 
 25.8          49 
 25.82         65 
 25.84         67 
 25.86         44 
 25.88         58 
 25.9          61 
 25.92         67 
 25.94         71 
 25.96         66 
 25.98         71 
 26            68 
 26.02         75 
 26.04         62 
 26.06         50 
 26.08         65 
 26.1          62 
 26.12         45 
 26.14         64 
 26.16         57 
 26.18         54 
 26.2          49 
 26.22         40 
 26.24         68 
 26.26         63 
 26.28         65 
 26.3          58 
 26.32         53 
 26.34         66 
 26.36         57 
 26.38         56 
 26.4          64 
 26.42         71 
 26.44         52 
 26.46         58 
 26.48         63 
 26.5          56 
 26.52         52 
 26.54         49 
 26.56         44 
 26.58         51 
 26.6          55 
 26.62         52 
 26.64         64 
 26.66         58 
 26.68         56 
 26.7          52 
 26.72         63 
 26.74         65 
 26.76         50 
 26.78         58 
 26.8          59 
 26.82         44 
 26.84         44 
 26.86         60 
 26.88         48 
 26.9          45 
 26.92         58 
 26.94         63 
 26.96         57 
 26.98         59 
 27            60 
 27.02         61 
 27.04         65 
 27.06         59 
 27.08         70 
 27.1          77 
 27.12         66 
 27.14         84 
 27.16         76 
 27.18         94 
 27.2          94 
 27.22         92 
 27.24         111 
 27.26         131 
 27.28         151 
 27.3          190 
 27.32         305 
 27.34         424 
 27.36         563 
 27.38         785 
 27.4          1098 
 27.42         1357 
 27.44         1554 
 27.46         1647 
 27.48         1568 
 27.5          1403 
 27.52         1094 
 27.54         820 
 27.56         581 
 27.58         400 
 27.6          263 
 27.62         184 
 27.64         127 
 27.66         107 
 27.68         84 
 27.7          78 
 27.72         82 
 27.74         72 
 27.76         75 
 27.78         60 
 27.8          64 
 27.82         65 
 27.84         62 
 27.86         39 
 27.88         55 
 27.9          64 
 27.92         56 
 27.94         48 
 27.96         65 
 27.98         60 
 28            69 
 28.02         52 
 28.04         55 
 28.06         70 
 28.08         57 
 28.1          55 
 28.12         42 
 28.14         55 
 28.16         45 
 28.18         50 
 28.2          47 
 28.22         56 
 28.24         48 
 28.26         54 
 28.28         51 
 28.3          55 
 28.32         38 
 28.34         64 
 28.36         64 
 28.38         46 
 28.4          49 
 28.42         53 
 28.44         51 
 28.46         55 
 28.48         40 
 28.5          70 
 28.52         50 
 28.54         49 
 28.56         48 
 28.58         37 
 28.6          52 
 28.62         46 
 28.64         38 
 28.66         42 
 28.68         49 
 28.7          51 
 28.72         41 
 28.74         51 
 28.76         50 
 28.78         42 
 28.8          50 
 28.82         56 
 28.84         54 
 28.86         41 
 28.88         54 
 28.9          60 
 28.92         38 
 28.94         47 
 28.96         61 
 28.98         42 
 29            52 
 29.02         44 
 29.04         48 
 29.06         54 
 29.08         45 
 29.1          47 
 29.12         56 
 29.14         39 
 29.16         43 
 29.18         56 
 29.2          50 
 29.22         47 
 29.24         53 
 29.26         58 
 29.28         37 
 29.3          39 
 29.32         45 
 29.34         53 
 29.36         44 
 29.38         54 
 29.4          41 
 29.42         44 
 29.44         49 
 29.46         49 
 29.48         41 
 29.5          47 
 29.52         41 
 29.54         42 
 29.56         61 
 29.58         59 
 29.6          57 
 29.62         51 
 29.64         53 
 29.66         48 
 29.68         41 
 29.7          46 
 29.72         57 
 29.74         50 
 29.76         51 
 29.78         55 
 29.8          47 
 29.82         51 
 29.84         52 
 29.86         39 
 29.88         54 
 29.9          51 
 29.92         50 
 29.94         56 
 29.96         58 
 29.98         54 
 30            43 
 30.02         59 
 30.04         43 
 30.06         45 
 30.08         48 
 30.1          64 
 30.12         51 
 30.14         64 
 30.16         44 
 30.18         58 
 30.2          71 
 30.22         68 
 30.24         67 
 30.26         75 
 30.28         70 
 30.3          50 
 30.32         45 
 30.34         55 
 30.36         57 
 30.38         51 
 30.4          45 
 30.42         40 
 30.44         41 
 30.46         40 
 30.48         49 
 30.5          50 
 30.52         43 
 30.54         45 
 30.56         43 
 30.58         47 
 30.6          46 
 30.62         35 
 30.64         39 
 30.66         23 
 30.68         45 
 30.7          49 
 30.72         41 
 30.74         44 
 30.76         36 
 30.78         46 
 30.8          41 
 30.82         45 
 30.84         44 
 30.86         39 
 30.88         36 
 30.9          31 
 30.92         39 
 30.94         30 
 30.96         47 
 30.98         47 
 31            36 
 31.02         44 
 31.04         54 
 31.06         39 
 31.08         34 
 31.1          52 
 31.12         36 
 31.14         32 
 31.16         40 
 31.18         25 
 31.2          51 
 31.22         28 
 31.24         36 
 31.26         39 
 31.28         34 
 31.3          50 
 31.32         34 
 31.34         53 
 31.36         39 
 31.38         34 
 31.4          40 
 31.42         30 
 31.44         41 
 31.46         37 
 31.48         37 
 31.5          39 
 31.52         38 
 31.54         38 
 31.56         52 
 31.58         39 
 31.6          36 
 31.62         40 
 31.64         36 
 31.66         41 
 31.68         45 
 31.7          38 
 31.72         63 
 31.74         43 
 31.76         46 
 31.78         32 
 31.8          47 
 31.82         29 
 31.84         37 
 31.86         39 
 31.88         41 
 31.9          43 
 31.92         48 
 31.94         43 
 31.96         46 
 31.98         29 
 32            31 
 32.02         37 
 32.04         29 
 32.06         24 
 32.08         36 
 32.1          37 
 32.12         38 
 32.14         35 
 32.16         44 
 32.18         38 
 32.2          35 
 32.22         41 
 32.24         35 
 32.26         38 
 32.28         38 
 32.3          53 
 32.32         39 
 32.34         43 
 32.36         40 
 32.38         28 
 32.4          35 
 32.42         31 
 32.44         29 
 32.46         27 
 32.48         31 
 32.5          36 
 32.52         42 
 32.54         26 
 32.56         44 
 32.58         42 
 32.6          31 
 32.62         31 
 32.64         39 
 32.66         28 
 32.68         32 
 32.7          41 
 32.72         38 
 32.74         30 
 32.76         36 
 32.78         41 
 32.8          36 
 32.82         38 
 32.84         38 
 32.86         34 
 32.88         31 
 32.9          36 
 32.92         44 
 32.94         40 
 32.96         38 
 32.98         35 
 33            25 
 33.02         37 
 33.04         43 
 33.06         37 
 33.08         42 
 33.1          31 
 33.12         34 
 33.14         39 
 33.16         29 
 33.18         32 
 33.2          35 
 33.22         35 
 33.24         42 
 33.26         36 
 33.28         30 
 33.3          27 
 33.32         38 
 33.34         35 
 33.36         38 
 33.38         39 
 33.4          28 
 33.42         36 
 33.44         38 
 33.46         41 
 33.48         30 
 33.5          30 
 33.52         22 
 33.54         32 
 33.56         36 
 33.58         32 
 33.6          28 
 33.62         29 
 33.64         41 
 33.66         29 
 33.68         40 
 33.7          26 
 33.72         31 
 33.74         39 
 33.76         30 
 33.78         41 
 33.8          41 
 33.82         26 
 33.84         31 
 33.86         49 
 33.88         39 
 33.9          30 
 33.92         33 
 33.94         35 
 33.96         24 
 33.98         36 
 34            38 
 34.02         35 
 34.04         25 
 34.06         31 
 34.08         54 
 34.1          29 
 34.12         26 
 34.14         44 
 34.16         36 
 34.18         32 
 34.2          30 
 34.22         34 
 34.24         42 
 34.26         42 
 34.28         23 
 34.3          32 
 34.32         36 
 34.34         36 
 34.36         32 
 34.38         26 
 34.4          35 
 34.42         30 
 34.44         30 
 34.46         26 
 34.48         35 
 34.5          38 
 34.52         27 
 34.54         29 
 34.56         31 
 34.58         31 
 34.6          40 
 34.62         39 
 34.64         30 
 34.66         24 
 34.68         31 
 34.7          30 
 34.72         36 
 34.74         33 
 34.76         31 
 34.78         30 
 34.8          30 
 34.82         31 
 34.84         26 
 34.86         39 
 34.88         29 
 34.9          37 
 34.92         38 
 34.94         27 
 34.96         37 
 34.98         28 
 35            33 
 35.02         36 
 35.04         29 
 35.06         46 
 35.08         34 
 35.1          34 
 35.12         36 
 35.14         32 
 35.16         32 
 35.18         38 
 35.2          39 
 35.22         51 
 35.24         39 
 35.26         43 
 35.28         42 
 35.3          50 
 35.32         47 
 35.34         55 
 35.36         56 
 35.38         85 
 35.4          85 
 35.42         115 
 35.44         163 
 35.46         170 
 35.48         239 
 35.5          325 
 35.52         473 
 35.54         693 
 35.56         855 
 35.58         958 
 35.6          1108 
 35.62         1118 
 35.64         1001 
 35.66         889 
 35.68         724 
 35.7          564 
 35.72         425 
 35.74         361 
 35.76         244 
 35.78         189 
 35.8          131 
 35.82         103 
 35.84         103 
 35.86         106 
 35.88         111 
 35.9          162 
 35.92         197 
 35.94         262 
 35.96         320 
 35.98         417 
 36            465 
 36.02         613 
 36.04         552 
 36.06         634 
 36.08         614 
 36.1          555 
 36.12         496 
 36.14         388 
 36.16         361 
 36.18         270 
 36.2          226 
 36.22         157 
 36.24         96 
 36.26         84 
 36.28         57 
 36.3          63 
 36.32         43 
 36.34         43 
 36.36         46 
 36.38         33 
 36.4          41 
 36.42         32 
 36.44         37 
 36.46         35 
 36.48         33 
 36.5          34 
 36.52         24 
 36.54         33 
 36.56         30 
 36.58         55 
 36.6          29 
 36.62         47 
 36.64         22 
 36.66         24 
 36.68         41 
 36.7          36 
 36.72         26 
 36.74         39 
 36.76         28 
 36.78         39 
 36.8          27 
 36.82         27 
 36.84         27 
 36.86         38 
 36.88         32 
 36.9          24 
 36.92         31 
 36.94         26 
 36.96         29 
 36.98         31 
 37            22 
 37.02         28 
 37.04         27 
 37.06         31 
 37.08         32 
 37.1          35 
 37.12         30 
 37.14         44 
 37.16         47 
 37.18         57 
 37.2          73 
 37.22         74 
 37.24         75 
 37.26         74 
 37.28         73 
 37.3          61 
 37.32         56 
 37.34         44 
 37.36         48 
 37.38         47 
 37.4          36 
 37.42         39 
 37.44         27 
 37.46         31 
 37.48         38 
 37.5          38 
 37.52         30 
 37.54         31 
 37.56         27 
 37.58         21 
 37.6          28 
 37.62         27 
 37.64         19 
 37.66         24 
 37.68         37 
 37.7          30 
 37.72         24 
 37.74         33 
 37.76         31 
 37.78         14 
 37.8          31 
 37.82         33 
 37.84         27 
 37.86         29 
 37.88         19 
 37.9          24 
 37.92         24 
 37.94         34 
 37.96         32 
 37.98         36 
 38            25 
 38.02         29 
 38.04         21 
 38.06         16 
 38.08         42 
 38.1          31 
 38.12         34 
 38.14         27 
 38.16         36 
 38.18         22 
 38.2          39 
 38.22         24 
 38.24         29 
 38.26         22 
 38.28         25 
 38.3          34 
 38.32         25 
 38.34         26 
 38.36         23 
 38.38         27 
 38.4          27 
 38.42         22 
 38.44         24 
 38.46         21 
 38.48         32 
 38.5          28 
 38.52         26 
 38.54         24 
 38.56         24 
 38.58         29 
 38.6          28 
 38.62         20 
 38.64         26 
 38.66         33 
 38.68         28 
 38.7          22 
 38.72         24 
 38.74         16 
 38.76         31 
 38.78         26 
 38.8          27 
 38.82         34 
 38.84         30 
 38.86         26 
 38.88         26 
 38.9          28 
 38.92         46 
 38.94         37 
 38.96         47 
 38.98         58 
 39            61 
 39.02         68 
 39.04         74 
 39.06         84 
 39.08         95 
 39.1          73 
 39.12         85 
 39.14         93 
 39.16         103 
 39.18         97 
 39.2          85 
 39.22         71 
 39.24         68 
 39.26         67 
 39.28         61 
 39.3          53 
 39.32         41 
 39.34         41 
 39.36         45 
 39.38         24 
 39.4          38 
 39.42         28 
 39.44         25 
 39.46         27 
 39.48         28 
 39.5          23 
 39.52         21 
 39.54         21 
 39.56         18 
 39.58         25 
 39.6          26 
 39.62         27 
 39.64         17 
 39.66         24 
 39.68         23 
 39.7          19 
 39.72         18 
 39.74         26 
 39.76         31 
 39.78         36 
 39.8          23 
 39.82         29 
 39.84         16 
 39.86         23 
 39.88         14 
 39.9          19 
 39.92         26 
 39.94         28 
 39.96         23 
 39.98         21 
 40            21 
 40.02         26 
 40.04         22 
 40.06         24 
 40.08         16 
 40.1          24 
 40.12         33 
 40.14         28 
 40.16         25 
 40.18         22 
 40.2          26 
 40.22         21 
 40.24         22 
 40.26         28 
 40.28         26 
 40.3          31 
 40.32         30 
 40.34         19 
 40.36         26 
 40.38         17 
 40.4          26 
 40.42         24 
 40.44         28 
 40.46         32 
 40.48         35 
 40.5          26 
 40.52         29 
 40.54         18 
 40.56         25 
 40.58         25 
 40.6          18 
 40.62         26 
 40.64         23 
 40.66         20 
 40.68         25 
 40.7          29 
 40.72         23 
 40.74         29 
 40.76         27 
 40.78         22 
 40.8          23 
 40.82         20 
 40.84         20 
 40.86         30 
 40.88         25 
 40.9          30 
 40.92         24 
 40.94         22 
 40.96         29 
 40.98         29 
 41            38 
 41.02         40 
 41.04         52 
 41.06         75 
 41.08         80 
 41.1          111 
 41.12         143 
 41.14         174 
 41.16         233 
 41.18         268 
 41.2          253 
 41.22         299 
 41.24         267 
 41.26         293 
 41.28         252 
 41.3          209 
 41.32         182 
 41.34         156 
 41.36         122 
 41.38         107 
 41.4          90 
 41.42         59 
 41.44         61 
 41.46         27 
 41.48         31 
 41.5          33 
 41.52         27 
 41.54         34 
 41.56         22 
 41.58         27 
 41.6          32 
 41.62         26 
 41.64         23 
 41.66         32 
 41.68         30 
 41.7          24 
 41.72         22 
 41.74         16 
 41.76         24 
 41.78         23 
 41.8          20 
 41.82         34 
 41.84         24 
 41.86         32 
 41.88         27 
 41.9          17 
 41.92         19 
 41.94         20 
 41.96         23 
 41.98         33 
 42            25 
 42.02         26 
 42.04         25 
 42.06         28 
 42.08         28 
 42.1          27 
 42.12         19 
 42.14         25 
 42.16         20 
 42.18         24 
 42.2          22 
 42.22         18 
 42.24         25 
 42.26         26 
 42.28         25 
 42.3          15 
 42.32         27 
 42.34         20 
 42.36         20 
 42.38         19 
 42.4          22 
 42.42         25 
 42.44         24 
 42.46         17 
 42.48         25 
 42.5          32 
 42.52         24 
 42.54         15 
 42.56         31 
 42.58         24 
 42.6          27 
 42.62         32 
 42.64         32 
 42.66         25 
 42.68         28 
 42.7          33 
 42.72         31 
 42.74         28 
 42.76         24 
 42.78         28 
 42.8          46 
 42.82         38 
 42.84         45 
 42.86         44 
 42.88         50 
 42.9          52 
 42.92         48 
 42.94         54 
 42.96         71 
 42.98         83 
 43            105 
 43.02         107 
 43.04         150 
 43.06         186 
 43.08         233 
 43.1          281 
 43.12         367 
 43.14         444 
 43.16         634 
 43.18         801 
 43.2          1150 
 43.22         1434 
 43.24         1742 
 43.26         1860 
 43.28         1834 
 43.3          1744 
 43.32         1532 
 43.34         1332 
 43.36         1227 
 43.38         1058 
 43.4          866 
 43.42         627 
 43.44         488 
 43.46         332 
 43.48         206 
 43.5          152 
 43.52         130 
 43.54         96 
 43.56         69 
 43.58         69 
 43.6          79 
 43.62         73 
 43.64         71 
 43.66         58 
 43.68         38 
 43.7          38 
 43.72         47 
 43.74         49 
 43.76         41 
 43.78         42 
 43.8          27 
 43.82         50 
 43.84         47 
 43.86         54 
 43.88         63 
 43.9          53 
 43.92         90 
 43.94         94 
 43.96         107 
 43.98         105 
 44            108 
 44.02         124 
 44.04         103 
 44.06         140 
 44.08         113 
 44.1          105 
 44.12         103 
 44.14         86 
 44.16         71 
 44.18         58 
 44.2          54 
 44.22         56 
 44.24         41 
 44.26         41 
 44.28         38 
 44.3          36 
 44.32         26 
 44.34         37 
 44.36         25 
 44.38         33 
 44.4          23 
 44.42         31 
 44.44         27 
 44.46         24 
 44.48         20 
 44.5          19 
 44.52         23 
 44.54         22 
 44.56         30 
 44.58         24 
 44.6          21 
 44.62         27 
 44.64         26 
 44.66         23 
 44.68         25 
 44.7          25 
 44.72         20 
 44.74         22 
 44.76         21 
 44.78         17 
 44.8          28 
 44.82         18 
 44.84         22 
 44.86         18 
 44.88         12 
 44.9          20 
 44.92         31 
 44.94         18 
 44.96         10 
 44.98         18 
 45            20 
 45.02         16 
 45.04         25 
 45.06         19 
 45.08         15 
 45.1          32 
 45.12         20 
 45.14         16 
 45.16         19 
 45.18         18 
 45.2          27 
 45.22         17 
 45.24         23 
 45.26         23 
 45.28         22 
 45.3          26 
 45.32         24 
 45.34         21 
 45.36         14 
 45.38         16 
 45.4          16 
 45.42         21 
 45.44         21 
 45.46         8 
 45.48         15 
 45.5          20 
 45.52         19 
 45.54         29 
 45.56         10 
 45.58         18 
 45.6          20 
 45.62         24 
 45.64         24 
 45.66         29 
 45.68         20 
 45.7          12 
 45.72         14 
 45.74         21 
 45.76         22 
 45.78         21 
 45.8          20 
 45.82         19 
 45.84         19 
 45.86         20 
 45.88         19 
 45.9          21 
 45.92         25 
 45.94         17 
 45.96         20 
 45.98         20 
 46            30 
 46.02         18 
 46.04         11 
 46.06         18 
 46.08         18 
 46.1          22 
 46.12         14 
 46.14         22 
 46.16         14 
 46.18         21 
 46.2          19 
 46.22         10 
 46.24         21 
 46.26         18 
 46.28         18 
 46.3          15 
 46.32         19 
 46.34         25 
 46.36         15 
 46.38         24 
 46.4          19 
 46.42         28 
 46.44         17 
 46.46         18 
 46.48         15 
 46.5          23 
 46.52         26 
 46.54         19 
 46.56         18 
 46.58         16 
 46.6          21 
 46.62         23 
 46.64         11 
 46.66         24 
 46.68         19 
 46.7          18 
 46.72         19 
 46.74         14 
 46.76         18 
 46.78         18 
 46.8          18 
 46.82         16 
 46.84         11 
 46.86         16 
 46.88         16 
 46.9          24 
 46.92         27 
 46.94         26 
 46.96         10 
 46.98         20 
 47            12 
 47.02         20 
 47.04         19 
 47.06         18 
 47.08         23 
 47.1          23 
 47.12         29 
 47.14         28 
 47.16         25 
 47.18         29 
 47.2          41 
 47.22         45 
 47.24         44 
 47.26         65 
 47.28         88 
 47.3          110 
 47.32         150 
 47.34         192 
 47.36         217 
 47.38         205 
 47.4          207 
 47.42         184 
 47.44         162 
 47.46         135 
 47.48         128 
 47.5          119 
 47.52         109 
 47.54         96 
 47.56         67 
 47.58         66 
 47.6          48 
 47.62         27 
 47.64         29 
 47.66         35 
 47.68         26 
 47.7          26 
 47.72         18 
 47.74         20 
 47.76         25 
 47.78         18 
 47.8          31 
 47.82         21 
 47.84         24 
 47.86         20 
 47.88         21 
 47.9          13 
 47.92         16 
 47.94         28 
 47.96         24 
 47.98         16 
 48            18 
 48.02         19 
 48.04         20 
 48.06         23 
 48.08         24 
 48.1          15 
 48.12         18 
 48.14         16 
 48.16         19 
 48.18         15 
 48.2          16 
 48.22         19 
 48.24         21 
 48.26         24 
 48.28         18 
 48.3          19 
 48.32         25 
 48.34         19 
 48.36         17 
 48.38         11 
 48.4          26 
 48.42         18 
 48.44         14 
 48.46         21 
 48.48         22 
 48.5          14 
 48.52         19 
 48.54         23 
 48.56         13 
 48.58         19 
 48.6          9 
 48.62         15 
 48.64         18 
 48.66         15 
 48.68         15 
 48.7          14 
 48.72         26 
 48.74         17 
 48.76         19 
 48.78         24 
 48.8          19 
 48.82         14 
 48.84         17 
 48.86         12 
 48.88         17 
 48.9          9 
 48.92         15 
 48.94         18 
 48.96         20 
 48.98         13 
 49            16 
 49.02         21 
 49.04         17 
 49.06         15 
 49.08         18 
 49.1          22 
 49.12         16 
 49.14         21 
 49.16         24 
 49.18         21 
 49.2          23 
 49.22         16 
 49.24         14 
 49.26         24 
 49.28         15 
 49.3          21 
 49.32         16 
 49.34         19 
 49.36         18 
 49.38         18 
 49.4          17 
 49.42         21 
 49.44         16 
 49.46         18 
 49.48         20 
 49.5          22 
 49.52         22 
 49.54         25 
 49.56         8 
 49.58         13 
 49.6          19 
 49.62         15 
 49.64         16 
 49.66         15 
 49.68         14 
 49.7          15 
 49.72         18 
 49.74         16 
 49.76         19 
 49.78         16 
 49.8          22 
 49.82         13 
 49.84         16 
 49.86         17 
 49.88         18 
 49.9          13 
 49.92         14 
 49.94         23 
 49.96         20 
 49.98         17 
 50            20 
 50.02         14 
 50.04         10 
 50.06         21 
 50.08         19 
 50.1          26 
 50.12         19 
 50.14         20 
 50.16         11 
 50.18         15 
 50.2          24 
 50.22         23 
 50.24         22 
 50.26         21 
 50.28         14 
 50.3          18 
 50.32         20 
 50.34         18 
 50.36         16 
 50.38         17 
 50.4          20 
 50.42         21 
 50.44         14 
 50.46         17 
 50.48         20 
 50.5          23 
 50.52         28 
 50.54         18 
 50.56         24 
 50.58         29 
 50.6          21 
 50.62         25 
 50.64         17 
 50.66         19 
 50.68         19 
 50.7          15 
 50.72         19 
 50.74         23 
 50.76         25 
 50.78         21 
 50.8          17 
 50.82         17 
 50.84         17 
 50.86         12 
 50.88         13 
 50.9          15 
 50.92         19 
 50.94         23 
 50.96         16 
 50.98         23 
 51            20 
 51.02         17 
 51.04         22 
 51.06         10 
 51.08         21 
 51.1          16 
 51.12         27 
 51.14         17 
 51.16         18 
 51.18         17 
 51.2          14 
 51.22         24 
 51.24         18 
 51.26         21 
 51.28         23 
 51.3          17 
 51.32         13 
 51.34         14 
 51.36         12 
 51.38         15 
 51.4          20 
 51.42         25 
 51.44         17 
 51.46         18 
 51.48         21 
 51.5          14 
 51.52         13 
 51.54         19 
 51.56         13 
 51.58         18 
 51.6          16 
 51.62         22 
 51.64         19 
 51.66         15 
 51.68         18 
 51.7          26 
 51.72         27 
 51.74         21 
 51.76         9 
 51.78         15 
 51.8          17 
 51.82         12 
 51.84         20 
 51.86         20 
 51.88         16 
 51.9          22 
 51.92         15 
 51.94         20 
 51.96         17 
 51.98         24 
 52            29 
 52.02         23 
 52.04         20 
 52.06         16 
 52.08         12 
 52.1          18 
 52.12         20 
 52.14         15 
 52.16         17 
 52.18         19 
 52.2          22 
 52.22         17 
 52.24         13 
 52.26         18 
 52.28         10 
 52.3          16 
 52.32         18 
 52.34         29 
 52.36         16 
 52.38         15 
 52.4          26 
 52.42         20 
 52.44         21 
 52.46         13 
 52.48         16 
 52.5          19 
 52.52         24 
 52.54         16 
 52.56         19 
 52.58         22 
 52.6          13 
 52.62         15 
 52.64         12 
 52.66         19 
 52.68         18 
 52.7          21 
 52.72         23 
 52.74         17 
 52.76         21 
 52.78         19 
 52.8          21 
 52.82         24 
 52.84         23 
 52.86         11 
 52.88         24 
 52.9          20 
 52.92         20 
 52.94         21 
 52.96         23 
 52.98         20 
 53            21 
 53.02         12 
 53.04         17 
 53.06         18 
 53.08         22 
 53.1          18 
 53.12         15 
 53.14         18 
 53.16         19 
 53.18         19 
 53.2          19 
 53.22         17 
 53.24         26 
 53.26         18 
 53.28         19 
 53.3          23 
 53.32         19 
 53.34         19 
 53.36         11 
 53.38         20 
 53.4          18 
 53.42         23 
 53.44         24 
 53.46         25 
 53.48         16 
 53.5          15 
 53.52         29 
 53.54         24 
 53.56         16 
 53.58         18 
 53.6          24 
 53.62         26 
 53.64         25 
 53.66         18 
 53.68         30 
 53.7          27 
 53.72         26 
 53.74         26 
 53.76         28 
 53.78         30 
 53.8          26 
 53.82         28 
 53.84         30 
 53.86         21 
 53.88         38 
 53.9          39 
 53.92         32 
 53.94         41 
 53.96         34 
 53.98         61 
 54            46 
 54.02         66 
 54.04         71 
 54.06         78 
 54.08         117 
 54.1          141 
 54.12         171 
 54.14         239 
 54.16         296 
 54.18         337 
 54.2          414 
 54.22         466 
 54.24         537 
 54.26         588 
 54.28         606 
 54.3          600 
 54.32         587 
 54.34         610 
 54.36         549 
 54.38         536 
 54.4          456 
 54.42         406 
 54.44         386 
 54.46         308 
 54.48         241 
 54.5          211 
 54.52         191 
 54.54         167 
 54.56         114 
 54.58         93 
 54.6          87 
 54.62         46 
 54.64         43 
 54.66         43 
 54.68         42 
 54.7          34 
 54.72         44 
 54.74         21 
 54.76         35 
 54.78         22 
 54.8          28 
 54.82         28 
 54.84         34 
 54.86         30 
 54.88         20 
 54.9          21 
 54.92         21 
 54.94         16 
 54.96         27 
 54.98         24 
 55            26 
 55.02         17 
 55.04         26 
 55.06         23 
 55.08         23 
 55.1          19 
 55.12         17 
 55.14         19 
 55.16         28 
 55.18         20 
 55.2          21 
 55.22         20 
 55.24         24 
 55.26         15 
 55.28         19 
 55.3          30 
 55.32         22 
 55.34         17 
 55.36         15 
 55.38         22 
 55.4          25 
 55.42         29 
 55.44         21 
 55.46         21 
 55.48         29 
 55.5          21 
 55.52         17 
 55.54         26 
 55.56         19 
 55.58         16 
 55.6          17 
 55.62         19 
 55.64         19 
 55.66         26 
 55.68         17 
 55.7          20 
 55.72         17 
 55.74         23 
 55.76         22 
 55.78         21 
 55.8          16 
 55.82         23 
 55.84         21 
 55.86         22 
 55.88         20 
 55.9          23 
 55.92         22 
 55.94         23 
 55.96         16 
 55.98         18 
 56            26 
 56.02         27 
 56.04         22 
 56.06         16 
 56.08         18 
 56.1          22 
 56.12         21 
 56.14         18 
 56.16         24 
 56.18         18 
 56.2          31 
 56.22         24 
 56.24         24 
 56.26         27 
 56.28         24 
 56.3          21 
 56.32         23 
 56.34         25 
 56.36         21 
 56.38         33 
 56.4          30 
 56.42         39 
 56.44         38 
 56.46         50 
 56.48         54 
 56.5          68 
 56.52         110 
 56.54         118 
 56.56         144 
 56.58         190 
 56.6          188 
 56.62         219 
 56.64         218 
 56.66         231 
 56.68         204 
 56.7          193 
 56.72         181 
 56.74         179 
 56.76         149 
 56.78         175 
 56.8          162 
 56.82         116 
 56.84         93 
 56.86         87 
 56.88         75 
 56.9          67 
 56.92         77 
 56.94         108 
 56.96         77 
 56.98         80 
 57            91 
 57.02         82 
 57.04         97 
 57.06         131 
 57.08         172 
 57.1          187 
 57.12         274 
 57.14         377 
 57.16         426 
 57.18         535 
 57.2          603 
 57.22         648 
 57.24         622 
 57.26         599 
 57.28         488 
 57.3          445 
 57.32         394 
 57.34         393 
 57.36         430 
 57.38         343 
 57.4          309 
 57.42         245 
 57.44         188 
 57.46         135 
 57.48         106 
 57.5          90 
 57.52         75 
 57.54         48 
 57.56         49 
 57.58         44 
 57.6          38 
 57.62         40 
 57.64         43 
 57.66         22 
 57.68         25 
 57.7          33 
 57.72         25 
 57.74         38 
 57.76         21 
 57.78         26 
 57.8          24 
 57.82         12 
 57.84         21 
 57.86         22 
 57.88         22 
 57.9          21 
 57.92         29 
 57.94         27 
 57.96         22 
 57.98         28 
 58            26 
 58.02         27 
 58.04         17 
 58.06         19 
 58.08         14 
 58.1          29 
 58.12         16 
 58.14         27 
 58.16         20 
 58.18         23 
 58.2          27 
 58.22         24 
 58.24         21 
 58.26         22 
 58.28         27 
 58.3          27 
 58.32         22 
 58.34         23 
 58.36         19 
 58.38         24 
 58.4          22 
 58.42         19 
 58.44         18 
 58.46         21 
 58.48         12 
 58.5          31 
 58.52         20 
 58.54         18 
 58.56         24 
 58.58         22 
 58.6          26 
 58.62         26 
 58.64         20 
 58.66         25 
 58.68         28 
 58.7          19 
 58.72         22 
 58.74         22 
 58.76         28 
 58.78         16 
 58.8          18 
 58.82         18 
 58.84         20 
 58.86         15 
 58.88         21 
 58.9          25 
 58.92         23 
 58.94         24 
 58.96         20 
 58.98         11 
 59            19 
 59.02         29 
 59.04         16 
 59.06         12 
 59.08         23 
 59.1          24 
 59.12         19 
 59.14         21 
 59.16         20 
 59.18         17 
 59.2          25 
 59.22         19 
 59.24         23 
 59.26         28 
 59.28         26 
 59.3          19 
 59.32         17 
 59.34         25 
 59.36         28 
 59.38         21 
 59.4          16 
 59.42         14 
 59.44         18 
 59.46         22 
 59.48         12 
 59.5          18 
 59.52         21 
 59.54         19 
 59.56         17 
 59.58         21 
 59.6          34 
 59.62         16 
 59.64         24 
 59.66         17 
 59.68         28 
 59.7          20 
 59.72         28 
 59.74         16 
 59.76         16 
 59.78         18 
 59.8          29 
 59.82         26 
 59.84         20 
 59.86         12 
 59.88         21 
 59.9          27 
 59.92         24 
 59.94         23 
 59.96         17 
 59.98         23 
 60            20 
 60.02         29 
 60.04         34 
 60.06         20 
 60.08         27 
 60.1          10 
 60.12         30 
 60.14         20 
 60.16         18 
 60.18         17 
 60.2          18 
 60.22         21 
 60.24         19 
 60.26         23 
 60.28         28 
 60.3          11 
 60.32         18 
 60.34         19 
 60.36         29 
 60.38         16 
 60.4          23 
 60.42         15 
 60.44         22 
 60.46         21 
 60.48         22 
 60.5          20 
 60.52         14 
 60.54         21 
 60.56         7 
 60.58         24 
 60.6          20 
 60.62         12 
 60.64         16 
 60.66         21 
 60.68         28 
 60.7          30 
 60.72         16 
 60.74         25 
 60.76         26 
 60.78         24 
 60.8          26 
 60.82         15 
 60.84         20 
 60.86         18 
 60.88         22 
 60.9          24 
 60.92         22 
 60.94         17 
 60.96         14 
 60.98         29 
 61            25 
 61.02         22 
 61.04         20 
 61.06         19 
 61.08         21 
 61.1          25 
 61.12         23 
 61.14         24 
 61.16         24 
 61.18         21 
 61.2          35 
 61.22         21 
 61.24         24 
 61.26         21 
 61.28         18 
 61.3          23 
 61.32         14 
 61.34         18 
 61.36         14 
 61.38         14 
 61.4          20 
 61.42         22 
 61.44         19 
 61.46         20 
 61.48         16 
 61.5          14 
 61.52         22 
 61.54         19 
 61.56         21 
 61.58         28 
 61.6          20 
 61.62         19 
 61.64         17 
 61.66         29 
 61.68         24 
 61.7          21 
 61.72         29 
 61.74         20 
 61.76         29 
 61.78         28 
 61.8          24 
 61.82         20 
 61.84         23 
 61.86         24 
 61.88         22 
 61.9          29 
 61.92         29 
 61.94         28 
 61.96         31 
 61.98         30 
 62            24 
 62.02         32 
 62.04         20 
 62.06         16 
 62.08         24 
 62.1          25 
 62.12         32 
 62.14         30 
 62.16         26 
 62.18         28 
 62.2          22 
 62.22         34 
 62.24         32 
 62.26         33 
 62.28         39 
 62.3          22 
 62.32         35 
 62.34         31 
 62.36         41 
 62.38         48 
 62.4          41 
 62.42         46 
 62.44         49 
 62.46         75 
 62.48         75 
 62.5          93 
 62.52         86 
 62.54         86 
 62.56         105 
 62.58         154 
 62.6          182 
 62.62         172 
 62.64         179 
 62.66         218 
 62.68         249 
 62.7          327 
 62.72         398 
 62.74         505 
 62.76         701 
 62.78         858 
 62.8          1084 
 62.82         1184 
 62.84         1245 
 62.86         1232 
 62.88         1077 
 62.9          943 
 62.92         752 
 62.94         638 
 62.96         706 
 62.98         677 
 63            708 
 63.02         683 
 63.04         579 
 63.06         482 
 63.08         350 
 63.1          240 
 63.12         168 
 63.14         155 
 63.16         127 
 63.18         99 
 63.2          72 
 63.22         75 
 63.24         57 
 63.26         64 
 63.28         52 
 63.3          51 
 63.32         40 
 63.34         44 
 63.36         42 
 63.38         39 
 63.4          39 
 63.42         33 
 63.44         31 
 63.46         56 
 63.48         38 
 63.5          24 
 63.52         29 
 63.54         28 
 63.56         40 
 63.58         29 
 63.6          38 
 63.62         43 
 63.64         31 
 63.66         38 
 63.68         32 
 63.7          36 
 63.72         29 
 63.74         40 
 63.76         62 
 63.78         50 
 63.8          59 
 63.82         64 
 63.84         60 
 63.86         82 
 63.88         84 
 63.9          58 
 63.92         84 
 63.94         82 
 63.96         83 
 63.98         78 
 64            84 
 64.02         89 
 64.04         92 
 64.06         71 
 64.08         89 
 64.1          84 
 64.12         76 
 64.14         76 
 64.16         66 
 64.18         54 
 64.2          55 
 64.22         57 
 64.24         53 
 64.26         52 
 64.28         38 
 64.3          45 
 64.32         31 
 64.34         39 
 64.36         15 
 64.38         40 
 64.4          32 
 64.42         29 
 64.44         30 
 64.46         20 
 64.48         24 
 64.5          21 
 64.52         23 
 64.54         20 
 64.56         17 
 64.58         27 
 64.6          27 
 64.62         24 
 64.64         21 
 64.66         22 
 64.68         16 
 64.7          23 
 64.72         24 
 64.74         19 
 64.76         19 
 64.78         32 
 64.8          17 
 64.82         25 
 64.84         10 
 64.86         22 
 64.88         14 
 64.9          22 
 64.92         24 
 64.94         23 
 64.96         22 
 64.98         21 
 65            15 
 65.02         15 
 65.04         26 
 65.06         19 
 65.08         21 
 65.1          23 
 65.12         23 
 65.14         28 
 65.16         26 
 65.18         17 
 65.2          19 
 65.22         16 
 65.24         19 
 65.26         17 
 65.28         24 
 65.3          17 
 65.32         22 
 65.34         22 
 65.36         29 
 65.38         33 
 65.4          24 
 65.42         21 
 65.44         19 
 65.46         23 
 65.48         28 
 65.5          33 
 65.52         28 
 65.54         26 
 65.56         27 
 65.58         32 
 65.6          21 
 65.62         28 
 65.64         25 
 65.66         38 
 65.68         30 
 65.7          37 
 65.72         44 
 65.74         47 
 65.76         41 
 65.78         44 
 65.8          56 
 65.82         44 
 65.84         62 
 65.86         60 
 65.88         54 
 65.9          86 
 65.92         83 
 65.94         115 
 65.96         124 
 65.98         182 
 66            226 
 66.02         294 
 66.04         354 
 66.06         448 
 66.08         451 
 66.1          423 
 66.12         344 
 66.14         317 
 66.16         243 
 66.18         228 
 66.2          230 
 66.22         229 
 66.24         254 
 66.26         223 
 66.28         205 
 66.3          177 
 66.32         162 
 66.34         107 
 66.36         89 
 66.38         71 
 66.4          57 
 66.42         42 
 66.44         33 
 66.46         32 
 66.48         37 
 66.5          31 
 66.52         23 
 66.54         28 
 66.56         27 
 66.58         30 
 66.6          29 
 66.62         27 
 66.64         21 
 66.66         22 
 66.68         19 
 66.7          19 
 66.72         21 
 66.74         25 
 66.76         25 
 66.78         32 
 66.8          22 
 66.82         26 
 66.84         22 
 66.86         24 
 66.88         25 
 66.9          22 
 66.92         26 
 66.94         22 
 66.96         26 
 66.98         12 
 67            20 
 67.02         20 
 67.04         18 
 67.06         15 
 67.08         29 
 67.1          21 
 67.12         22 
 67.14         28 
 67.16         37 
 67.18         23 
 67.2          22 
 67.22         18 
 67.24         25 
 67.26         20 
 67.28         29 
 67.3          17 
 67.32         18 
 67.34         25 
 67.36         21 
 67.38         25 
 67.4          16 
 67.42         20 
 67.44         18 
 67.46         29 
 67.48         20 
 67.5          17 
 67.52         11 
 67.54         16 
 67.56         15 
 67.58         19 
 67.6          24 
 67.62         26 
 67.64         15 
 67.66         19 
 67.68         11 
 67.7          15 
 67.72         26 
 67.74         24 
 67.76         17 
 67.78         14 
 67.8          17 
 67.82         17 
 67.84         21 
 67.86         19 
 67.88         19 
 67.9          18 
 67.92         25 
 67.94         18 
 67.96         16 
 67.98         15 
 68            19 
 68.02         22 
 68.04         24 
 68.06         20 
 68.08         19 
 68.1          22 
 68.12         19 
 68.14         24 
 68.16         21 
 68.18         30 
 68.2          21 
 68.22         21 
 68.24         16 
 68.26         14 
 68.28         17 
 68.3          21 
 68.32         19 
 68.34         19 
 68.36         21 
 68.38         21 
 68.4          32 
 68.42         25 
 68.44         26 
 68.46         25 
 68.48         24 
 68.5          32 
 68.52         31 
 68.54         30 
 68.56         32 
 68.58         35 
 68.6          33 
 68.62         57 
 68.64         71 
 68.66         67 
 68.68         72 
 68.7          85 
 68.72         141 
 68.74         93 
 68.76         94 
 68.78         122 
 68.8          103 
 68.82         124 
 68.84         120 
 68.86         126 
 68.88         168 
 68.9          131 
 68.92         171 
 68.94         157 
 68.96         145 
 68.98         160 
 69            136 
 69.02         144 
 69.04         142 
 69.06         159 
 69.08         124 
 69.1          84 
 69.12         102 
 69.14         100 
 69.16         78 
 69.18         75 
 69.2          74 
 69.22         66 
 69.24         79 
 69.26         63 
 69.28         44 
 69.3          55 
 69.32         61 
 69.34         44 
 69.36         36 
 69.38         30 
 69.4          47 
 69.42         34 
 69.44         34 
 69.46         41 
 69.48         37 
 69.5          31 
 69.52         38 
 69.54         46 
 69.56         50 
 69.58         51 
 69.6          60 
 69.62         69 
 69.64         73 
 69.66         81 
 69.68         84 
 69.7          90 
 69.72         94 
 69.74         91 
 69.76         101 
 69.78         72 
 69.8          87 
 69.82         88 
 69.84         86 
 69.86         91 
 69.88         78 
 69.9          72 
 69.92         65 
 69.94         58 
 69.96         53 
 69.98         51 
 70            57 
 70.02         50 
 70.04         50 
 70.06         44 
 70.08         25 
 70.1          29 
 70.12         34 
 70.14         29 
 70.16         14 
 70.18         24 
 70.2          18 
 70.22         21 
 70.24         23 
 70.26         13 
 70.28         17 
 70.3          10 
 70.32         13 
 70.34         12 
 70.36         23 
 70.38         15 
 70.4          26 
 70.42         20 
 70.44         22 
 70.46         13 
 70.48         13 
 70.5          19 
 70.52         23 
 70.54         20 
 70.56         26 
 70.58         19 
 70.6          14 
 70.62         14 
 70.64         22 
 70.66         15 
 70.68         19 
 70.7          8 
 70.72         16 
 70.74         18 
 70.76         17 
 70.78         21 
 70.8          15 
 70.82         18 
 70.84         15 
 70.86         19 
 70.88         23 
 70.9          14 
 70.92         18 
 70.94         14 
 70.96         22 
 70.98         15 
 71            17 
 71.02         15 
 71.04         29 
 71.06         17 
 71.08         12 
 71.1          16 
 71.12         11 
 71.14         13 
 71.16         18 
 71.18         18 
 71.2          12 
 71.22         20 
 71.24         17 
 71.26         13 
 71.28         16 
 71.3          22 
 71.32         25 
 71.34         18 
 71.36         24 
 71.38         16 
 71.4          19 
 71.42         18 
 71.44         14 
 71.46         17 
 71.48         23 
 71.5          17 
 71.52         15 
 71.54         11 
 71.56         8 
 71.58         22 
 71.6          23 
 71.62         25 
 71.64         13 
 71.66         19 
 71.68         17 
 71.7          18 
 71.72         15 
 71.74         15 
 71.76         13 
 71.78         16 
 71.8          15 
 71.82         8 
 71.84         19 
 71.86         11 
 71.88         14 
 71.9          14 
 71.92         17 
 71.94         9 
 71.96         14 
 71.98         12 
 72            19 
 72.02         14 
 72.04         17 
 72.06         21 
 72.08         24 
 72.1          20 
 72.12         26 
 72.14         14 
 72.16         21 
 72.18         17 
 72.2          22 
 72.22         19 
 72.24         32 
 72.26         33 
 72.28         20 
 72.3          25 
 72.32         24 
 72.34         17 
 72.36         26 
 72.38         25 
 72.4          27 
 72.42         27 
 72.44         23 
 72.46         27 
 72.48         18 
 72.5          21 
 72.52         21 
 72.54         28 
 72.56         25 
 72.58         21 
 72.6          23 
 72.62         26 
 72.64         19 
 72.66         20 
 72.68         17 
 72.7          16 
 72.72         22 
 72.74         29 
 72.76         12 
 72.78         26 
 72.8          13 
 72.82         16 
 72.84         19 
 72.86         13 
 72.88         13 
 72.9          22 
 72.92         10 
 72.94         13 
 72.96         17 
 72.98         14 
 73            12 
 73.02         27 
 73.04         17 
 73.06         14 
 73.08         14 
 73.1          11 
 73.12         15 
 73.14         9 
 73.16         21 
 73.18         11 
 73.2          22 
 73.22         13 
 73.24         13 
 73.26         20 
 73.28         10 
 73.3          20 
 73.32         15 
 73.34         21 
 73.36         10 
 73.38         24 
 73.4          15 
 73.42         14 
 73.44         21 
 73.46         18 
 73.48         20 
 73.5          18 
 73.52         18 
 73.54         17 
 73.56         22 
 73.58         9 
 73.6          25 
 73.62         14 
 73.64         20 
 73.66         20 
 73.68         19 
 73.7          19 
 73.72         18 
 73.74         10 
 73.76         18 
 73.78         24 
 73.8          20 
 73.82         12 
 73.84         17 
 73.86         15 
 73.88         28 
 73.9          16 
 73.92         22 
 73.93999      17 
 73.96         26 
 73.98         21 
 74            16 
 74.02         19 
 74.04         21 
 74.06         26 
 74.08         25 
 74.1          29 
 74.12         33 
 74.14         23 
 74.16         33 
 74.18         32 
 74.2          34 
 74.22         52 
 74.24         54 
 74.26         73 
 74.28         86 
 74.3          122 
 74.32         134 
 74.34         157 
 74.36         172 
 74.38         146 
 74.4          136 
 74.42         113 
 74.43999      93 
 74.46         70 
 74.48         87 
 74.5          78 
 74.52         85 
 74.54         92 
 74.56         67 
 74.58         105 
 74.6          84 
 74.62         61 
 74.64         60 
 74.66         35 
 74.68         35 
 74.7          29 
 74.72         23 
 74.74         31 
 74.76         22 
 74.78         31 
 74.8          20 
 74.82         18 
 74.84         19 
 74.86         15 
 74.88         23 
 74.9          17 
 74.92         14 
 74.93999      19 
 74.96         21 
 74.98         20 
 75            17 
