LTO P5 gemahlen  Original Data
 3151 
 12            293 
 12.02         285 
 12.04         270 
 12.06         281 
 12.08         262 
 12.1          276 
 12.12         260 
 12.14         298 
 12.16         247 
 12.18         262 
 12.2          229 
 12.22         291 
 12.24         237 
 12.26         308 
 12.28         260 
 12.3          295 
 12.32         249 
 12.34         249 
 12.36         249 
 12.38         280 
 12.4          259 
 12.42         270 
 12.44         252 
 12.46         225 
 12.48         290 
 12.5          239 
 12.52         294 
 12.54         246 
 12.56         267 
 12.58         251 
 12.6          278 
 12.62         266 
 12.64         243 
 12.66         254 
 12.68         253 
 12.7          302 
 12.72         246 
 12.74         248 
 12.76         247 
 12.78         259 
 12.8          273 
 12.82         277 
 12.84         233 
 12.86         257 
 12.88         233 
 12.9          267 
 12.92         250 
 12.94         267 
 12.96         241 
 12.98         278 
 13            259 
 13.02         252 
 13.04         230 
 13.06         215 
 13.08         259 
 13.1          234 
 13.12         279 
 13.14         239 
 13.16         259 
 13.18         235 
 13.2          290 
 13.22         224 
 13.24         251 
 13.26         255 
 13.28         236 
 13.3          238 
 13.32         243 
 13.34         237 
 13.36         247 
 13.38         244 
 13.4          236 
 13.42         251 
 13.44         236 
 13.46         221 
 13.48         217 
 13.5          228 
 13.52         205 
 13.54         231 
 13.56         262 
 13.58         196 
 13.6          219 
 13.62         217 
 13.64         248 
 13.66         204 
 13.68         226 
 13.7          233 
 13.72         235 
 13.74         215 
 13.76         209 
 13.78         200 
 13.8          198 
 13.82         196 
 13.84         236 
 13.86         197 
 13.88         223 
 13.9          203 
 13.92         201 
 13.94         207 
 13.96         202 
 13.98         222 
 14            201 
 14.02         209 
 14.04         183 
 14.06         175 
 14.08         217 
 14.1          199 
 14.12         183 
 14.14         214 
 14.16         199 
 14.18         183 
 14.2          196 
 14.22         209 
 14.24         174 
 14.26         196 
 14.28         198 
 14.3          205 
 14.32         189 
 14.34         187 
 14.36         171 
 14.38         171 
 14.4          165 
 14.42         195 
 14.44         207 
 14.46         161 
 14.48         183 
 14.5          192 
 14.52         177 
 14.54         194 
 14.56         205 
 14.58         184 
 14.6          167 
 14.62         187 
 14.64         190 
 14.66         190 
 14.68         165 
 14.7          209 
 14.72         172 
 14.74         178 
 14.76         180 
 14.78         165 
 14.8          171 
 14.82         189 
 14.84         178 
 14.86         179 
 14.88         181 
 14.9          178 
 14.92         169 
 14.94         176 
 14.96         183 
 14.98         183 
 15            195 
 15.02         159 
 15.04         161 
 15.06         175 
 15.08         165 
 15.1          152 
 15.12         171 
 15.14         183 
 15.16         163 
 15.18         183 
 15.2          165 
 15.22         125 
 15.24         164 
 15.26         152 
 15.28         176 
 15.3          174 
 15.32         179 
 15.34         151 
 15.36         154 
 15.38         169 
 15.4          151 
 15.42         154 
 15.44         181 
 15.46         170 
 15.48         158 
 15.5          169 
 15.52         173 
 15.54         180 
 15.56         173 
 15.58         165 
 15.6          179 
 15.62         187 
 15.64         169 
 15.66         184 
 15.68         143 
 15.7          156 
 15.72         155 
 15.74         184 
 15.76         177 
 15.78         155 
 15.8          161 
 15.82         164 
 15.84         195 
 15.86         157 
 15.88         166 
 15.9          170 
 15.92         170 
 15.94         143 
 15.96         170 
 15.98         187 
 16            170 
 16.02         176 
 16.04         151 
 16.06         181 
 16.08         179 
 16.1          170 
 16.12         158 
 16.14         181 
 16.16         174 
 16.18         168 
 16.2          174 
 16.22         157 
 16.24         163 
 16.26         158 
 16.28         165 
 16.3          168 
 16.32         180 
 16.34         147 
 16.36         164 
 16.38         156 
 16.4          173 
 16.42         160 
 16.44         158 
 16.46         161 
 16.48         170 
 16.5          152 
 16.52         170 
 16.54         125 
 16.56         155 
 16.58         181 
 16.6          167 
 16.62         152 
 16.64         150 
 16.66         173 
 16.68         130 
 16.7          182 
 16.72         162 
 16.74         150 
 16.76         171 
 16.78         152 
 16.8          178 
 16.82         160 
 16.84         168 
 16.86         174 
 16.88         172 
 16.9          143 
 16.92         154 
 16.94         162 
 16.96         155 
 16.98         146 
 17            170 
 17.02         174 
 17.04         159 
 17.06         183 
 17.08         197 
 17.1          175 
 17.12         171 
 17.14         184 
 17.16         193 
 17.18         171 
 17.2          193 
 17.22         176 
 17.24         176 
 17.26         190 
 17.28         170 
 17.3          211 
 17.32         196 
 17.34         179 
 17.36         219 
 17.38         189 
 17.4          231 
 17.42         196 
 17.44         192 
 17.46         213 
 17.48         243 
 17.5          211 
 17.52         235 
 17.54         256 
 17.56         283 
 17.58         250 
 17.6          262 
 17.62         256 
 17.64         285 
 17.66         273 
 17.68         295 
 17.7          287 
 17.72         334 
 17.74         383 
 17.76         373 
 17.78         389 
 17.8          419 
 17.82         475 
 17.84         480 
 17.86         541 
 17.88         600 
 17.9          657 
 17.92         715 
 17.94         804 
 17.96         850 
 17.98         918 
 18            1094 
 18.02         1270 
 18.04         1318 
 18.06         1488 
 18.08         1669 
 18.1          1862 
 18.12         2269 
 18.14         2505 
 18.16         2886 
 18.18         3365 
 18.2          3790 
 18.22         4360 
 18.24         4948 
 18.26         5420 
 18.28         6169 
 18.3          6581 
 18.32         7268 
 18.34         7390 
 18.36         7369 
 18.38         7232 
 18.4          6677 
 18.42         5915 
 18.44         4994 
 18.46         4221 
 18.48         3360 
 18.5          2693 
 18.52         2168 
 18.54         1805 
 18.56         1479 
 18.58         1238 
 18.6          928 
 18.62         885 
 18.64         776 
 18.66         703 
 18.68         569 
 18.7          522 
 18.72         471 
 18.74         464 
 18.76         440 
 18.78         418 
 18.8          373 
 18.82         339 
 18.84         342 
 18.86         289 
 18.88         325 
 18.9          299 
 18.92         283 
 18.94         253 
 18.96         279 
 18.98         253 
 19            257 
 19.02         248 
 19.04         240 
 19.06         216 
 19.08         212 
 19.1          198 
 19.12         194 
 19.14         206 
 19.16         181 
 19.18         206 
 19.2          164 
 19.22         170 
 19.24         218 
 19.26         190 
 19.28         154 
 19.3          206 
 19.32         162 
 19.34         204 
 19.36         188 
 19.38         165 
 19.4          178 
 19.42         168 
 19.44         194 
 19.46         150 
 19.48         175 
 19.5          149 
 19.52         149 
 19.54         181 
 19.56         154 
 19.58         167 
 19.6          161 
 19.62         163 
 19.64         156 
 19.66         166 
 19.68         171 
 19.7          149 
 19.72         123 
 19.74         151 
 19.76         169 
 19.78         137 
 19.8          143 
 19.82         162 
 19.84         152 
 19.86         165 
 19.88         151 
 19.9          132 
 19.92         168 
 19.94         162 
 19.96         157 
 19.98         160 
 20            153 
 20.02         150 
 20.04         138 
 20.06         145 
 20.08         153 
 20.1          141 
 20.12         146 
 20.14         176 
 20.16         178 
 20.18         143 
 20.2          141 
 20.22         156 
 20.24         174 
 20.26         170 
 20.28         142 
 20.3          155 
 20.32         148 
 20.34         141 
 20.36         133 
 20.38         136 
 20.4          147 
 20.42         138 
 20.44         147 
 20.46         137 
 20.48         140 
 20.5          182 
 20.52         150 
 20.54         120 
 20.56         134 
 20.58         146 
 20.6          142 
 20.62         162 
 20.64         159 
 20.66         117 
 20.68         145 
 20.7          131 
 20.72         126 
 20.74         154 
 20.76         122 
 20.78         114 
 20.8          120 
 20.82         149 
 20.84         155 
 20.86         137 
 20.88         149 
 20.9          149 
 20.92         148 
 20.94         132 
 20.96         150 
 20.98         135 
 21            125 
 21.02         146 
 21.04         141 
 21.06         145 
 21.08         144 
 21.1          137 
 21.12         129 
 21.14         141 
 21.16         134 
 21.18         147 
 21.2          130 
 21.22         126 
 21.24         132 
 21.26         128 
 21.28         121 
 21.3          138 
 21.32         113 
 21.34         148 
 21.36         142 
 21.38         134 
 21.4          132 
 21.42         122 
 21.44         137 
 21.46         142 
 21.48         145 
 21.5          131 
 21.52         147 
 21.54         125 
 21.56         147 
 21.58         130 
 21.6          133 
 21.62         127 
 21.64         126 
 21.66         129 
 21.68         135 
 21.7          142 
 21.72         143 
 21.74         140 
 21.76         120 
 21.78         135 
 21.8          128 
 21.82         160 
 21.84         147 
 21.86         140 
 21.88         125 
 21.9          109 
 21.92         129 
 21.94         129 
 21.96         142 
 21.98         126 
 22            135 
 22.02         155 
 22.04         132 
 22.06         123 
 22.08         130 
 22.1          118 
 22.12         129 
 22.14         124 
 22.16         156 
 22.18         129 
 22.2          112 
 22.22         139 
 22.24         124 
 22.26         115 
 22.28         111 
 22.3          135 
 22.32         137 
 22.34         140 
 22.36         119 
 22.38         121 
 22.4          119 
 22.42         123 
 22.44         115 
 22.46         121 
 22.48         144 
 22.5          124 
 22.52         153 
 22.54         118 
 22.56         139 
 22.58         136 
 22.6          134 
 22.62         146 
 22.64         131 
 22.66         127 
 22.68         136 
 22.7          151 
 22.72         132 
 22.74         108 
 22.76         131 
 22.78         125 
 22.8          133 
 22.82         127 
 22.84         136 
 22.86         126 
 22.88         149 
 22.9          156 
 22.92         132 
 22.94         146 
 22.96         136 
 22.98         117 
 23            135 
 23.02         141 
 23.04         132 
 23.06         148 
 23.08         128 
 23.1          136 
 23.12         138 
 23.14         139 
 23.16         124 
 23.18         131 
 23.2          112 
 23.22         141 
 23.24         117 
 23.26         145 
 23.28         136 
 23.3          128 
 23.32         139 
 23.34         134 
 23.36         112 
 23.38         117 
 23.4          127 
 23.42         134 
 23.44         120 
 23.46         146 
 23.48         139 
 23.5          126 
 23.52         118 
 23.54         112 
 23.56         133 
 23.58         110 
 23.6          133 
 23.62         100 
 23.64         143 
 23.66         136 
 23.68         135 
 23.7          118 
 23.72         147 
 23.74         123 
 23.76         121 
 23.78         115 
 23.8          132 
 23.82         125 
 23.84         131 
 23.86         127 
 23.88         112 
 23.9          142 
 23.92         121 
 23.94         124 
 23.96         129 
 23.98         142 
 24            123 
 24.02         132 
 24.04         114 
 24.06         131 
 24.08         141 
 24.1          123 
 24.12         136 
 24.14         142 
 24.16         119 
 24.18         135 
 24.2          128 
 24.22         122 
 24.24         127 
 24.26         132 
 24.28         130 
 24.3          133 
 24.32         125 
 24.34         108 
 24.36         113 
 24.38         128 
 24.4          118 
 24.42         109 
 24.44         139 
 24.46         108 
 24.48         127 
 24.5          125 
 24.52         121 
 24.54         123 
 24.56         119 
 24.58         124 
 24.6          124 
 24.62         145 
 24.64         134 
 24.66         134 
 24.68         140 
 24.7          141 
 24.72         129 
 24.74         111 
 24.76         124 
 24.78         121 
 24.8          139 
 24.82         117 
 24.84         137 
 24.86         128 
 24.88         120 
 24.9          121 
 24.92         115 
 24.94         123 
 24.96         141 
 24.98         137 
 25            121 
 25.02         133 
 25.04         113 
 25.06         123 
 25.08         128 
 25.1          116 
 25.12         130 
 25.14         137 
 25.16         134 
 25.18         123 
 25.2          126 
 25.22         124 
 25.24         125 
 25.26         112 
 25.28         126 
 25.3          115 
 25.32         144 
 25.34         129 
 25.36         126 
 25.38         128 
 25.4          134 
 25.42         136 
 25.44         124 
 25.46         129 
 25.48         143 
 25.5          122 
 25.52         109 
 25.54         124 
 25.56         129 
 25.58         119 
 25.6          113 
 25.62         122 
 25.64         118 
 25.66         127 
 25.68         126 
 25.7          104 
 25.72         96 
 25.74         122 
 25.76         113 
 25.78         144 
 25.8          123 
 25.82         140 
 25.84         117 
 25.86         126 
 25.88         120 
 25.9          107 
 25.92         129 
 25.94         117 
 25.96         110 
 25.98         127 
 26            113 
 26.02         125 
 26.04         116 
 26.06         114 
 26.08         128 
 26.1          116 
 26.12         125 
 26.14         120 
 26.16         132 
 26.18         128 
 26.2          116 
 26.22         117 
 26.24         122 
 26.26         113 
 26.28         122 
 26.3          121 
 26.32         132 
 26.34         138 
 26.36         126 
 26.38         124 
 26.4          113 
 26.42         119 
 26.44         123 
 26.46         117 
 26.48         123 
 26.5          115 
 26.52         114 
 26.54         111 
 26.56         110 
 26.58         143 
 26.6          112 
 26.62         97 
 26.64         124 
 26.66         113 
 26.68         130 
 26.7          110 
 26.72         123 
 26.74         135 
 26.76         116 
 26.78         122 
 26.8          108 
 26.82         110 
 26.84         115 
 26.86         135 
 26.88         120 
 26.9          124 
 26.92         133 
 26.94         130 
 26.96         130 
 26.98         124 
 27            117 
 27.02         124 
 27.04         105 
 27.06         134 
 27.08         152 
 27.1          115 
 27.12         135 
 27.14         123 
 27.16         156 
 27.18         134 
 27.2          144 
 27.22         160 
 27.24         156 
 27.26         149 
 27.28         161 
 27.3          187 
 27.32         208 
 27.34         212 
 27.36         249 
 27.38         277 
 27.4          292 
 27.42         286 
 27.44         309 
 27.46         311 
 27.48         286 
 27.5          264 
 27.52         218 
 27.54         174 
 27.56         167 
 27.58         139 
 27.6          145 
 27.62         138 
 27.64         121 
 27.66         131 
 27.68         126 
 27.7          116 
 27.72         114 
 27.74         119 
 27.76         124 
 27.78         130 
 27.8          107 
 27.82         122 
 27.84         125 
 27.86         99 
 27.88         131 
 27.9          125 
 27.92         112 
 27.94         117 
 27.96         115 
 27.98         104 
 28            113 
 28.02         103 
 28.04         118 
 28.06         129 
 28.08         119 
 28.1          106 
 28.12         125 
 28.14         121 
 28.16         109 
 28.18         113 
 28.2          114 
 28.22         125 
 28.24         106 
 28.26         107 
 28.28         111 
 28.3          143 
 28.32         95 
 28.34         104 
 28.36         126 
 28.38         115 
 28.4          121 
 28.42         106 
 28.44         103 
 28.46         99 
 28.48         105 
 28.5          109 
 28.52         94 
 28.54         120 
 28.56         84 
 28.58         104 
 28.6          101 
 28.62         100 
 28.64         103 
 28.66         86 
 28.68         114 
 28.7          95 
 28.72         76 
 28.74         91 
 28.76         107 
 28.78         94 
 28.8          110 
 28.82         87 
 28.84         115 
 28.86         122 
 28.88         99 
 28.9          113 
 28.92         108 
 28.94         80 
 28.96         107 
 28.98         97 
 29            100 
 29.02         92 
 29.04         92 
 29.06         110 
 29.08         114 
 29.1          99 
 29.12         84 
 29.14         91 
 29.16         103 
 29.18         104 
 29.2          93 
 29.22         99 
 29.24         86 
 29.26         106 
 29.28         97 
 29.3          89 
 29.32         102 
 29.34         96 
 29.36         81 
 29.38         101 
 29.4          109 
 29.42         111 
 29.44         114 
 29.46         95 
 29.48         94 
 29.5          107 
 29.52         84 
 29.54         95 
 29.56         88 
 29.58         89 
 29.6          90 
 29.62         90 
 29.64         105 
 29.66         102 
 29.68         99 
 29.7          83 
 29.72         88 
 29.74         88 
 29.76         99 
 29.78         92 
 29.8          102 
 29.82         92 
 29.84         94 
 29.86         109 
 29.88         85 
 29.9          89 
 29.92         120 
 29.94         90 
 29.96         112 
 29.98         120 
 30            98 
 30.02         126 
 30.04         129 
 30.06         135 
 30.08         136 
 30.1          122 
 30.12         148 
 30.14         148 
 30.16         158 
 30.18         149 
 30.2          169 
 30.22         145 
 30.24         147 
 30.26         172 
 30.28         150 
 30.3          147 
 30.32         140 
 30.34         125 
 30.36         129 
 30.38         116 
 30.4          119 
 30.42         109 
 30.44         100 
 30.46         109 
 30.48         98 
 30.5          100 
 30.52         89 
 30.54         105 
 30.56         104 
 30.58         104 
 30.6          84 
 30.62         104 
 30.64         98 
 30.66         88 
 30.68         86 
 30.7          89 
 30.72         102 
 30.74         104 
 30.76         98 
 30.78         83 
 30.8          93 
 30.82         81 
 30.84         70 
 30.86         85 
 30.88         64 
 30.9          98 
 30.92         86 
 30.94         89 
 30.96         84 
 30.98         92 
 31            82 
 31.02         68 
 31.04         92 
 31.06         87 
 31.08         86 
 31.1          95 
 31.12         96 
 31.14         87 
 31.16         79 
 31.18         71 
 31.2          86 
 31.22         97 
 31.24         75 
 31.26         81 
 31.28         83 
 31.3          76 
 31.32         84 
 31.34         86 
 31.36         82 
 31.38         88 
 31.4          78 
 31.42         75 
 31.44         68 
 31.46         84 
 31.48         112 
 31.5          73 
 31.52         83 
 31.54         69 
 31.56         73 
 31.58         73 
 31.6          89 
 31.62         85 
 31.64         108 
 31.66         92 
 31.68         63 
 31.7          86 
 31.72         65 
 31.74         74 
 31.76         69 
 31.78         79 
 31.8          73 
 31.82         84 
 31.84         71 
 31.86         83 
 31.88         77 
 31.9          67 
 31.92         57 
 31.94         67 
 31.96         62 
 31.98         88 
 32            77 
 32.02         81 
 32.04         93 
 32.06         74 
 32.08         61 
 32.1          66 
 32.12         79 
 32.14         86 
 32.16         78 
 32.18         82 
 32.2          75 
 32.22         79 
 32.24         62 
 32.26         78 
 32.28         68 
 32.3          67 
 32.32         82 
 32.34         68 
 32.36         57 
 32.38         72 
 32.4          80 
 32.42         84 
 32.44         53 
 32.46         77 
 32.48         86 
 32.5          76 
 32.52         83 
 32.54         74 
 32.56         72 
 32.58         73 
 32.6          72 
 32.62         81 
 32.64         75 
 32.66         82 
 32.68         77 
 32.7          62 
 32.72         78 
 32.74         75 
 32.76         82 
 32.78         77 
 32.8          70 
 32.82         75 
 32.84         106 
 32.86         69 
 32.88         78 
 32.9          81 
 32.92         79 
 32.94         78 
 32.96         73 
 32.98         60 
 33            68 
 33.02         72 
 33.04         78 
 33.06         78 
 33.08         82 
 33.1          88 
 33.12         69 
 33.14         68 
 33.16         76 
 33.18         81 
 33.2          91 
 33.22         69 
 33.24         83 
 33.26         70 
 33.28         80 
 33.3          69 
 33.32         70 
 33.34         71 
 33.36         87 
 33.38         73 
 33.4          74 
 33.42         68 
 33.44         74 
 33.46         79 
 33.48         77 
 33.5          86 
 33.52         70 
 33.54         67 
 33.56         98 
 33.58         56 
 33.6          61 
 33.62         74 
 33.64         68 
 33.66         83 
 33.68         72 
 33.7          58 
 33.72         66 
 33.74         80 
 33.76         72 
 33.78         79 
 33.8          99 
 33.82         87 
 33.84         56 
 33.86         70 
 33.88         74 
 33.9          72 
 33.92         77 
 33.94         64 
 33.96         69 
 33.98         81 
 34            73 
 34.02         71 
 34.04         76 
 34.06         65 
 34.08         61 
 34.1          67 
 34.12         77 
 34.14         81 
 34.16         79 
 34.18         74 
 34.2          83 
 34.22         86 
 34.24         76 
 34.26         74 
 34.28         71 
 34.3          95 
 34.32         80 
 34.34         82 
 34.36         78 
 34.38         83 
 34.4          90 
 34.42         76 
 34.44         77 
 34.46         76 
 34.48         77 
 34.5          79 
 34.52         93 
 34.54         76 
 34.56         79 
 34.58         86 
 34.6          92 
 34.62         90 
 34.64         101 
 34.66         82 
 34.68         84 
 34.7          99 
 34.72         106 
 34.74         103 
 34.76         101 
 34.78         118 
 34.8          120 
 34.82         120 
 34.84         98 
 34.86         131 
 34.88         126 
 34.9          137 
 34.92         148 
 34.94         156 
 34.96         146 
 34.98         159 
 35            142 
 35.02         149 
 35.04         163 
 35.06         175 
 35.08         202 
 35.1          170 
 35.12         236 
 35.14         235 
 35.16         245 
 35.18         280 
 35.2          322 
 35.22         341 
 35.24         335 
 35.26         414 
 35.28         436 
 35.3          523 
 35.32         556 
 35.34         600 
 35.36         760 
 35.38         871 
 35.4          945 
 35.42         1134 
 35.44         1317 
 35.46         1603 
 35.48         1925 
 35.5          2094 
 35.52         2390 
 35.54         2616 
 35.56         2888 
 35.58         3078 
 35.6          3021 
 35.62         3010 
 35.64         2844 
 35.66         2633 
 35.68         2392 
 35.7          2166 
 35.72         1901 
 35.74         1498 
 35.76         1271 
 35.78         1105 
 35.8          947 
 35.82         764 
 35.84         634 
 35.86         576 
 35.88         500 
 35.9          471 
 35.92         417 
 35.94         372 
 35.96         321 
 35.98         307 
 36            311 
 36.02         299 
 36.04         299 
 36.06         281 
 36.08         247 
 36.1          271 
 36.12         227 
 36.14         244 
 36.16         188 
 36.18         173 
 36.2          168 
 36.22         142 
 36.24         145 
 36.26         131 
 36.28         138 
 36.3          110 
 36.32         135 
 36.34         111 
 36.36         106 
 36.38         92 
 36.4          97 
 36.42         103 
 36.44         94 
 36.46         85 
 36.48         77 
 36.5          85 
 36.52         108 
 36.54         66 
 36.56         63 
 36.58         76 
 36.6          76 
 36.62         78 
 36.64         84 
 36.66         86 
 36.68         71 
 36.7          73 
 36.72         88 
 36.74         59 
 36.76         75 
 36.78         97 
 36.8          66 
 36.82         83 
 36.84         82 
 36.86         77 
 36.88         82 
 36.9          69 
 36.92         86 
 36.94         77 
 36.96         62 
 36.98         85 
 37            77 
 37.02         116 
 37.04         92 
 37.06         120 
 37.08         116 
 37.1          119 
 37.12         121 
 37.14         148 
 37.16         164 
 37.18         175 
 37.2          191 
 37.22         178 
 37.24         171 
 37.26         208 
 37.28         198 
 37.3          170 
 37.32         175 
 37.34         131 
 37.36         131 
 37.38         116 
 37.4          101 
 37.42         114 
 37.44         77 
 37.46         81 
 37.48         87 
 37.5          92 
 37.52         73 
 37.54         55 
 37.56         74 
 37.58         55 
 37.6          60 
 37.62         75 
 37.64         72 
 37.66         65 
 37.68         49 
 37.7          55 
 37.72         55 
 37.74         47 
 37.76         54 
 37.78         56 
 37.8          63 
 37.82         60 
 37.84         48 
 37.86         52 
 37.88         48 
 37.9          61 
 37.92         44 
 37.94         50 
 37.96         60 
 37.98         55 
 38            59 
 38.02         54 
 38.04         43 
 38.06         60 
 38.08         50 
 38.1          43 
 38.12         65 
 38.14         45 
 38.16         45 
 38.18         43 
 38.2          54 
 38.22         57 
 38.24         53 
 38.26         44 
 38.28         65 
 38.3          65 
 38.32         60 
 38.34         54 
 38.36         40 
 38.38         45 
 38.4          50 
 38.42         53 
 38.44         59 
 38.46         50 
 38.48         64 
 38.5          55 
 38.52         45 
 38.54         48 
 38.56         37 
 38.58         46 
 38.6          53 
 38.62         55 
 38.64         51 
 38.66         58 
 38.68         41 
 38.7          36 
 38.72         44 
 38.74         55 
 38.76         52 
 38.78         57 
 38.8          48 
 38.82         38 
 38.84         51 
 38.86         52 
 38.88         62 
 38.9          49 
 38.92         52 
 38.94         61 
 38.96         57 
 38.98         43 
 39            50 
 39.02         41 
 39.04         48 
 39.06         57 
 39.08         68 
 39.1          53 
 39.12         49 
 39.14         53 
 39.16         53 
 39.18         53 
 39.2          58 
 39.22         62 
 39.24         64 
 39.26         76 
 39.28         59 
 39.3          61 
 39.32         53 
 39.34         62 
 39.36         63 
 39.38         46 
 39.4          49 
 39.42         44 
 39.44         61 
 39.46         51 
 39.48         44 
 39.5          44 
 39.52         54 
 39.54         64 
 39.56         42 
 39.58         50 
 39.6          46 
 39.62         46 
 39.64         50 
 39.66         47 
 39.68         35 
 39.7          64 
 39.72         50 
 39.74         62 
 39.76         49 
 39.78         56 
 39.8          46 
 39.82         39 
 39.84         52 
 39.86         44 
 39.88         59 
 39.9          57 
 39.92         49 
 39.94         46 
 39.96         43 
 39.98         53 
 40            37 
 40.02         48 
 40.04         45 
 40.06         58 
 40.08         50 
 40.1          36 
 40.12         42 
 40.14         44 
 40.16         50 
 40.18         48 
 40.2          53 
 40.22         44 
 40.24         59 
 40.26         51 
 40.28         45 
 40.3          53 
 40.32         51 
 40.34         47 
 40.36         42 
 40.38         48 
 40.4          37 
 40.42         47 
 40.44         61 
 40.46         38 
 40.48         59 
 40.5          49 
 40.52         47 
 40.54         56 
 40.56         55 
 40.58         49 
 40.6          45 
 40.62         53 
 40.64         55 
 40.66         56 
 40.68         49 
 40.7          46 
 40.72         66 
 40.74         55 
 40.76         43 
 40.78         57 
 40.8          50 
 40.82         64 
 40.84         53 
 40.86         51 
 40.88         65 
 40.9          59 
 40.92         66 
 40.94         51 
 40.96         48 
 40.98         58 
 41            56 
 41.02         60 
 41.04         52 
 41.06         59 
 41.08         81 
 41.1          58 
 41.12         68 
 41.14         71 
 41.16         81 
 41.18         106 
 41.2          101 
 41.22         91 
 41.24         112 
 41.26         93 
 41.28         84 
 41.3          93 
 41.32         99 
 41.34         89 
 41.36         72 
 41.38         82 
 41.4          74 
 41.42         59 
 41.44         78 
 41.46         67 
 41.48         66 
 41.5          54 
 41.52         44 
 41.54         50 
 41.56         62 
 41.58         60 
 41.6          75 
 41.62         62 
 41.64         66 
 41.66         57 
 41.68         60 
 41.7          68 
 41.72         72 
 41.74         81 
 41.76         55 
 41.78         68 
 41.8          77 
 41.82         51 
 41.84         62 
 41.86         82 
 41.88         64 
 41.9          63 
 41.92         79 
 41.94         67 
 41.96         66 
 41.98         91 
 42            69 
 42.02         55 
 42.04         81 
 42.06         77 
 42.08         69 
 42.1          67 
 42.12         88 
 42.14         80 
 42.16         87 
 42.18         75 
 42.2          91 
 42.22         91 
 42.24         81 
 42.26         89 
 42.28         99 
 42.3          93 
 42.32         80 
 42.34         102 
 42.36         106 
 42.38         120 
 42.4          127 
 42.42         102 
 42.44         114 
 42.46         114 
 42.48         125 
 42.5          122 
 42.52         131 
 42.54         131 
 42.56         147 
 42.58         128 
 42.6          149 
 42.62         179 
 42.64         186 
 42.66         226 
 42.68         198 
 42.7          199 
 42.72         231 
 42.74         232 
 42.76         249 
 42.78         256 
 42.8          285 
 42.82         318 
 42.84         331 
 42.86         447 
 42.88         412 
 42.9          475 
 42.92         527 
 42.94         566 
 42.96         708 
 42.98         774 
 43            900 
 43.02         982 
 43.04         1184 
 43.06         1330 
 43.08         1562 
 43.1          1843 
 43.12         2085 
 43.14         2396 
 43.16         2762 
 43.18         3249 
 43.2          3514 
 43.22         3817 
 43.24         4134 
 43.26         4225 
 43.28         4374 
 43.3          4199 
 43.32         3915 
 43.34         3753 
 43.36         3421 
 43.38         3038 
 43.4          2785 
 43.42         2440 
 43.44         2189 
 43.46         1803 
 43.48         1517 
 43.5          1331 
 43.52         1096 
 43.54         967 
 43.56         823 
 43.58         763 
 43.6          697 
 43.62         633 
 43.64         554 
 43.66         499 
 43.68         451 
 43.7          416 
 43.72         369 
 43.74         366 
 43.76         366 
 43.78         313 
 43.8          274 
 43.82         232 
 43.84         231 
 43.86         216 
 43.88         187 
 43.9          181 
 43.92         186 
 43.94         204 
 43.96         153 
 43.98         170 
 44            135 
 44.02         139 
 44.04         153 
 44.06         151 
 44.08         125 
 44.1          136 
 44.12         141 
 44.14         118 
 44.16         108 
 44.18         108 
 44.2          120 
 44.22         107 
 44.24         102 
 44.26         93 
 44.28         89 
 44.3          87 
 44.32         98 
 44.34         89 
 44.36         95 
 44.38         89 
 44.4          82 
 44.42         69 
 44.44         77 
 44.46         79 
 44.48         74 
 44.5          73 
 44.52         70 
 44.54         60 
 44.56         79 
 44.58         62 
 44.6          75 
 44.62         67 
 44.64         67 
 44.66         68 
 44.68         57 
 44.7          67 
 44.72         43 
 44.74         79 
 44.76         59 
 44.78         55 
 44.8          63 
 44.82         56 
 44.84         57 
 44.86         47 
 44.88         53 
 44.9          62 
 44.92         52 
 44.94         63 
 44.96         46 
 44.98         50 
 45            63 
 45.02         61 
 45.04         53 
 45.06         56 
 45.08         63 
 45.1          40 
 45.12         63 
 45.14         44 
 45.16         53 
 45.18         58 
 45.2          42 
 45.22         52 
 45.24         54 
 45.26         50 
 45.28         66 
 45.3          41 
 45.32         45 
 45.34         64 
 45.36         57 
 45.38         42 
 45.4          43 
 45.42         55 
 45.44         53 
 45.46         50 
 45.48         60 
 45.5          56 
 45.52         42 
 45.54         50 
 45.56         44 
 45.58         40 
 45.6          54 
 45.62         44 
 45.64         53 
 45.66         49 
 45.68         38 
 45.7          49 
 45.72         53 
 45.74         46 
 45.76         48 
 45.78         52 
 45.8          43 
 45.82         52 
 45.84         47 
 45.86         47 
 45.88         57 
 45.9          55 
 45.92         53 
 45.94         51 
 45.96         40 
 45.98         55 
 46            44 
 46.02         42 
 46.04         50 
 46.06         46 
 46.08         50 
 46.1          50 
 46.12         43 
 46.14         46 
 46.16         53 
 46.18         42 
 46.2          41 
 46.22         47 
 46.24         51 
 46.26         47 
 46.28         51 
 46.3          47 
 46.32         63 
 46.34         42 
 46.36         38 
 46.38         42 
 46.4          40 
 46.42         53 
 46.44         36 
 46.46         57 
 46.48         58 
 46.5          50 
 46.52         54 
 46.54         46 
 46.56         62 
 46.58         57 
 46.6          64 
 46.62         67 
 46.64         38 
 46.66         53 
 46.68         53 
 46.7          59 
 46.72         63 
 46.74         50 
 46.76         50 
 46.78         60 
 46.8          65 
 46.82         56 
 46.84         53 
 46.86         58 
 46.88         59 
 46.9          74 
 46.92         74 
 46.94         69 
 46.96         80 
 46.98         71 
 47            70 
 47.02         70 
 47.04         93 
 47.06         89 
 47.08         94 
 47.1          107 
 47.12         132 
 47.14         137 
 47.16         150 
 47.18         169 
 47.2          173 
 47.22         205 
 47.24         248 
 47.26         265 
 47.28         299 
 47.3          361 
 47.32         380 
 47.34         416 
 47.36         479 
 47.38         431 
 47.4          456 
 47.42         440 
 47.44         411 
 47.46         376 
 47.48         350 
 47.5          338 
 47.52         311 
 47.54         260 
 47.56         212 
 47.58         236 
 47.6          161 
 47.62         141 
 47.64         150 
 47.66         113 
 47.68         115 
 47.7          89 
 47.72         92 
 47.74         105 
 47.76         90 
 47.78         78 
 47.8          78 
 47.82         81 
 47.84         63 
 47.86         68 
 47.88         71 
 47.9          65 
 47.92         67 
 47.94         83 
 47.96         58 
 47.98         69 
 48            67 
 48.02         62 
 48.04         60 
 48.06         76 
 48.08         50 
 48.1          61 
 48.12         47 
 48.14         55 
 48.16         54 
 48.18         42 
 48.2          43 
 48.22         49 
 48.24         69 
 48.26         43 
 48.28         59 
 48.3          44 
 48.32         45 
 48.34         45 
 48.36         45 
 48.38         56 
 48.4          53 
 48.42         37 
 48.44         58 
 48.46         37 
 48.48         46 
 48.5          44 
 48.52         43 
 48.54         39 
 48.56         52 
 48.58         37 
 48.6          47 
 48.62         52 
 48.64         37 
 48.66         44 
 48.68         45 
 48.7          41 
 48.72         40 
 48.74         48 
 48.76         36 
 48.78         41 
 48.8          52 
 48.82         47 
 48.84         50 
 48.86         48 
 48.88         49 
 48.9          39 
 48.92         26 
 48.94         41 
 48.96         37 
 48.98         43 
 49            51 
 49.02         43 
 49.04         45 
 49.06         36 
 49.08         38 
 49.1          48 
 49.12         39 
 49.14         32 
 49.16         55 
 49.18         41 
 49.2          36 
 49.22         59 
 49.24         43 
 49.26         38 
 49.28         42 
 49.3          42 
 49.32         50 
 49.34         44 
 49.36         32 
 49.38         42 
 49.4          48 
 49.42         43 
 49.44         34 
 49.46         37 
 49.48         27 
 49.5          43 
 49.52         35 
 49.54         33 
 49.56         39 
 49.58         39 
 49.6          43 
 49.62         52 
 49.64         40 
 49.66         37 
 49.68         43 
 49.7          38 
 49.72         56 
 49.74         44 
 49.76         31 
 49.78         40 
 49.8          45 
 49.82         53 
 49.84         45 
 49.86         40 
 49.88         33 
 49.9          50 
 49.92         45 
 49.94         45 
 49.96         47 
 49.98         41 
 50            45 
 50.02         44 
 50.04         46 
 50.06         40 
 50.08         40 
 50.1          50 
 50.12         53 
 50.14         36 
 50.16         38 
 50.18         40 
 50.2          55 
 50.22         42 
 50.24         55 
 50.26         51 
 50.28         45 
 50.3          50 
 50.32         50 
 50.34         45 
 50.36         42 
 50.38         46 
 50.4          46 
 50.42         45 
 50.44         35 
 50.46         53 
 50.48         40 
 50.5          50 
 50.52         36 
 50.54         52 
 50.56         52 
 50.58         53 
 50.6          61 
 50.62         39 
 50.64         43 
 50.66         42 
 50.68         45 
 50.7          51 
 50.72         39 
 50.74         45 
 50.76         48 
 50.78         44 
 50.8          43 
 50.82         42 
 50.84         50 
 50.86         47 
 50.88         36 
 50.9          52 
 50.92         53 
 50.94         46 
 50.96         39 
 50.98         32 
 51            29 
 51.02         44 
 51.04         35 
 51.06         38 
 51.08         41 
 51.1          37 
 51.12         47 
 51.14         42 
 51.16         48 
 51.18         34 
 51.2          53 
 51.22         41 
 51.24         42 
 51.26         41 
 51.28         40 
 51.3          41 
 51.32         55 
 51.34         48 
 51.36         52 
 51.38         40 
 51.4          43 
 51.42         40 
 51.44         43 
 51.46         35 
 51.48         41 
 51.5          44 
 51.52         50 
 51.54         31 
 51.56         42 
 51.58         42 
 51.6          41 
 51.62         42 
 51.64         50 
 51.66         43 
 51.68         55 
 51.7          51 
 51.72         33 
 51.74         30 
 51.76         38 
 51.78         41 
 51.8          45 
 51.82         47 
 51.84         38 
 51.86         46 
 51.88         45 
 51.9          34 
 51.92         40 
 51.94         37 
 51.96         34 
 51.98         48 
 52            38 
 52.02         45 
 52.04         34 
 52.06         31 
 52.08         42 
 52.1          53 
 52.12         48 
 52.14         37 
 52.16         43 
 52.18         40 
 52.2          45 
 52.22         50 
 52.24         45 
 52.26         36 
 52.28         39 
 52.3          50 
 52.32         47 
 52.34         43 
 52.36         31 
 52.38         44 
 52.4          47 
 52.42         30 
 52.44         32 
 52.46         42 
 52.48         51 
 52.5          41 
 52.52         45 
 52.54         34 
 52.56         42 
 52.58         44 
 52.6          43 
 52.62         47 
 52.64         48 
 52.66         46 
 52.68         51 
 52.7          45 
 52.72         46 
 52.74         34 
 52.76         29 
 52.78         39 
 52.8          37 
 52.82         32 
 52.84         47 
 52.86         46 
 52.88         35 
 52.9          51 
 52.92         50 
 52.94         44 
 52.96         45 
 52.98         35 
 53            44 
 53.02         39 
 53.04         40 
 53.06         50 
 53.08         38 
 53.1          41 
 53.12         33 
 53.14         36 
 53.16         52 
 53.18         40 
 53.2          52 
 53.22         40 
 53.24         40 
 53.26         42 
 53.28         37 
 53.3          42 
 53.32         54 
 53.34         44 
 53.36         46 
 53.38         38 
 53.4          38 
 53.42         50 
 53.44         42 
 53.46         46 
 53.48         55 
 53.5          44 
 53.52         37 
 53.54         49 
 53.56         36 
 53.58         40 
 53.6          50 
 53.62         51 
 53.64         49 
 53.66         46 
 53.68         46 
 53.7          62 
 53.72         45 
 53.74         52 
 53.76         43 
 53.78         45 
 53.8          48 
 53.82         44 
 53.84         47 
 53.86         51 
 53.88         45 
 53.9          53 
 53.92         48 
 53.94         59 
 53.96         34 
 53.98         66 
 54            54 
 54.02         54 
 54.04         44 
 54.06         54 
 54.08         55 
 54.1          48 
 54.12         76 
 54.14         53 
 54.16         65 
 54.18         76 
 54.2          85 
 54.22         81 
 54.24         119 
 54.26         106 
 54.28         108 
 54.3          126 
 54.32         121 
 54.34         123 
 54.36         118 
 54.38         137 
 54.4          111 
 54.42         108 
 54.44         119 
 54.46         100 
 54.48         89 
 54.5          108 
 54.52         73 
 54.54         66 
 54.56         72 
 54.58         65 
 54.6          62 
 54.62         43 
 54.64         66 
 54.66         57 
 54.68         40 
 54.7          46 
 54.72         44 
 54.74         41 
 54.76         60 
 54.78         39 
 54.8          47 
 54.82         56 
 54.84         52 
 54.86         52 
 54.88         48 
 54.9          42 
 54.92         44 
 54.94         37 
 54.96         46 
 54.98         55 
 55            40 
 55.02         54 
 55.04         50 
 55.06         48 
 55.08         44 
 55.1          51 
 55.12         56 
 55.14         39 
 55.16         43 
 55.18         49 
 55.2          49 
 55.22         51 
 55.24         42 
 55.26         57 
 55.28         31 
 55.3          52 
 55.32         48 
 55.34         56 
 55.36         50 
 55.38         50 
 55.4          56 
 55.42         43 
 55.44         53 
 55.46         51 
 55.48         60 
 55.5          39 
 55.52         44 
 55.54         47 
 55.56         50 
 55.58         56 
 55.6          44 
 55.62         48 
 55.64         43 
 55.66         56 
 55.68         47 
 55.7          46 
 55.72         51 
 55.74         40 
 55.76         45 
 55.78         56 
 55.8          55 
 55.82         42 
 55.84         48 
 55.86         53 
 55.88         36 
 55.9          52 
 55.92         53 
 55.94         67 
 55.96         49 
 55.98         61 
 56            48 
 56.02         53 
 56.04         45 
 56.06         59 
 56.08         62 
 56.1          61 
 56.12         51 
 56.14         50 
 56.16         63 
 56.18         57 
 56.2          58 
 56.22         58 
 56.24         68 
 56.26         70 
 56.28         67 
 56.3          67 
 56.32         67 
 56.34         65 
 56.36         59 
 56.38         72 
 56.4          55 
 56.42         75 
 56.44         84 
 56.46         85 
 56.48         91 
 56.5          83 
 56.52         94 
 56.54         106 
 56.56         104 
 56.58         110 
 56.6          133 
 56.62         118 
 56.64         129 
 56.66         128 
 56.68         129 
 56.7          145 
 56.72         139 
 56.74         129 
 56.76         127 
 56.78         116 
 56.8          164 
 56.82         149 
 56.84         174 
 56.86         192 
 56.88         187 
 56.9          199 
 56.92         237 
 56.94         252 
 56.96         279 
 56.98         339 
 57            360 
 57.02         405 
 57.04         456 
 57.06         550 
 57.08         628 
 57.1          699 
 57.12         787 
 57.14         861 
 57.16         961 
 57.18         1071 
 57.2          1099 
 57.22         1162 
 57.24         1167 
 57.26         1162 
 57.28         1138 
 57.3          1121 
 57.32         1025 
 57.34         998 
 57.36         897 
 57.38         902 
 57.4          751 
 57.42         687 
 57.44         626 
 57.46         529 
 57.48         493 
 57.5          400 
 57.52         365 
 57.54         288 
 57.56         293 
 57.58         259 
 57.6          236 
 57.62         208 
 57.64         186 
 57.66         185 
 57.68         165 
 57.7          154 
 57.72         145 
 57.74         149 
 57.76         126 
 57.78         116 
 57.8          96 
 57.82         98 
 57.84         104 
 57.86         113 
 57.88         99 
 57.9          106 
 57.92         91 
 57.94         70 
 57.96         85 
 57.98         63 
 58            83 
 58.02         74 
 58.04         59 
 58.06         63 
 58.08         67 
 58.1          75 
 58.12         48 
 58.14         81 
 58.16         80 
 58.18         76 
 58.2          67 
 58.22         71 
 58.24         68 
 58.26         72 
 58.28         78 
 58.3          65 
 58.32         65 
 58.34         63 
 58.36         68 
 58.38         57 
 58.4          46 
 58.42         51 
 58.44         48 
 58.46         60 
 58.48         44 
 58.5          65 
 58.52         51 
 58.54         67 
 58.56         46 
 58.58         58 
 58.6          64 
 58.62         57 
 58.64         54 
 58.66         63 
 58.68         59 
 58.7          64 
 58.72         53 
 58.74         54 
 58.76         55 
 58.78         59 
 58.8          61 
 58.82         55 
 58.84         53 
 58.86         56 
 58.88         46 
 58.9          56 
 58.92         55 
 58.94         63 
 58.96         65 
 58.98         50 
 59            36 
 59.02         55 
 59.04         51 
 59.06         49 
 59.08         50 
 59.1          64 
 59.12         52 
 59.14         55 
 59.16         61 
 59.18         47 
 59.2          50 
 59.22         50 
 59.24         42 
 59.26         52 
 59.28         37 
 59.3          62 
 59.32         56 
 59.34         52 
 59.36         45 
 59.38         60 
 59.4          46 
 59.42         55 
 59.44         61 
 59.46         60 
 59.48         50 
 59.5          55 
 59.52         57 
 59.54         59 
 59.56         45 
 59.58         52 
 59.6          53 
 59.62         64 
 59.64         69 
 59.66         58 
 59.68         53 
 59.7          49 
 59.72         52 
 59.74         48 
 59.76         56 
 59.78         58 
 59.8          59 
 59.82         67 
 59.84         56 
 59.86         55 
 59.88         67 
 59.9          52 
 59.92         51 
 59.94         54 
 59.96         36 
 59.98         56 
 60            45 
 60.02         50 
 60.04         55 
 60.06         45 
 60.08         50 
 60.1          57 
 60.12         47 
 60.14         54 
 60.16         73 
 60.18         52 
 60.2          59 
 60.22         52 
 60.24         59 
 60.26         54 
 60.28         52 
 60.3          51 
 60.32         58 
 60.34         50 
 60.36         63 
 60.38         60 
 60.4          50 
 60.42         50 
 60.44         59 
 60.46         57 
 60.48         55 
 60.5          60 
 60.52         61 
 60.54         54 
 60.56         60 
 60.58         57 
 60.6          50 
 60.62         64 
 60.64         55 
 60.66         57 
 60.68         41 
 60.7          47 
 60.72         47 
 60.74         59 
 60.76         38 
 60.78         57 
 60.8          68 
 60.82         56 
 60.84         63 
 60.86         65 
 60.88         53 
 60.9          60 
 60.92         54 
 60.94         58 
 60.96         57 
 60.98         48 
 61            47 
 61.02         54 
 61.04         68 
 61.06         56 
 61.08         66 
 61.1          52 
 61.12         56 
 61.14         46 
 61.16         61 
 61.18         54 
 61.2          49 
 61.22         58 
 61.24         52 
 61.26         67 
 61.28         53 
 61.3          65 
 61.32         63 
 61.34         53 
 61.36         56 
 61.38         57 
 61.4          50 
 61.42         71 
 61.44         54 
 61.46         60 
 61.48         68 
 61.5          60 
 61.52         72 
 61.54         69 
 61.56         53 
 61.58         69 
 61.6          65 
 61.62         65 
 61.64         81 
 61.66         82 
 61.68         76 
 61.7          57 
 61.72         79 
 61.74         75 
 61.76         75 
 61.78         75 
 61.8          72 
 61.82         90 
 61.84         86 
 61.86         81 
 61.88         81 
 61.9          88 
 61.92         87 
 61.94         84 
 61.96         88 
 61.98         80 
 62            82 
 62.02         72 
 62.04         103 
 62.06         98 
 62.08         108 
 62.1          96 
 62.12         105 
 62.14         96 
 62.16         98 
 62.18         100 
 62.2          123 
 62.22         134 
 62.24         116 
 62.26         135 
 62.28         155 
 62.3          166 
 62.32         147 
 62.34         180 
 62.36         177 
 62.38         178 
 62.4          221 
 62.42         215 
 62.44         213 
 62.46         242 
 62.48         262 
 62.5          292 
 62.52         335 
 62.54         395 
 62.56         405 
 62.58         461 
 62.6          503 
 62.62         563 
 62.64         646 
 62.66         786 
 62.68         940 
 62.7          1022 
 62.72         1195 
 62.74         1399 
 62.76         1495 
 62.78         1728 
 62.8          1842 
 62.82         1868 
 62.84         2101 
 62.86         2045 
 62.88         2086 
 62.9          2023 
 62.92         1899 
 62.94         1805 
 62.96         1671 
 62.98         1608 
 63            1529 
 63.02         1426 
 63.04         1246 
 63.06         1109 
 63.08         1013 
 63.1          914 
 63.12         792 
 63.14         659 
 63.16         597 
 63.18         510 
 63.2          474 
 63.22         407 
 63.24         337 
 63.26         323 
 63.28         307 
 63.3          251 
 63.32         280 
 63.34         238 
 63.36         222 
 63.38         208 
 63.4          210 
 63.42         195 
 63.44         192 
 63.46         181 
 63.48         152 
 63.5          166 
 63.52         163 
 63.54         121 
 63.56         153 
 63.58         134 
 63.6          124 
 63.62         115 
 63.64         119 
 63.66         114 
 63.68         100 
 63.7          108 
 63.72         111 
 63.74         105 
 63.76         83 
 63.78         102 
 63.8          81 
 63.82         79 
 63.84         101 
 63.86         81 
 63.88         93 
 63.9          86 
 63.92         96 
 63.94         97 
 63.96         104 
 63.98         73 
 64            90 
 64.02         93 
 64.04         87 
 64.06         100 
 64.08         87 
 64.1          101 
 64.12         76 
 64.14         75 
 64.16         100 
 64.18         83 
 64.2          79 
 64.22         69 
 64.24         65 
 64.26         75 
 64.28         77 
 64.3          70 
 64.32         69 
 64.34         59 
 64.36         71 
 64.38         60 
 64.4          70 
 64.42         76 
 64.44         67 
 64.46         64 
 64.48         63 
 64.5          69 
 64.52         58 
 64.54         55 
 64.56         55 
 64.58         69 
 64.6          68 
 64.62         64 
 64.64         45 
 64.66         54 
 64.68         52 
 64.7          57 
 64.72         64 
 64.74         52 
 64.76         65 
 64.78         76 
 64.8          61 
 64.82         68 
 64.84         71 
 64.86         49 
 64.88         59 
 64.9          53 
 64.92         54 
 64.94         51 
 64.96         63 
 64.98         74 
 65            64 
 65.02         65 
 65.04         48 
 65.06         60 
 65.08         65 
 65.1          70 
 65.12         69 
 65.14         51 
 65.16         54 
 65.18         60 
 65.2          65 
 65.22         73 
 65.24         68 
 65.26         66 
 65.28         68 
 65.3          65 
 65.32         65 
 65.34         71 
 65.36         77 
 65.38         59 
 65.4          71 
 65.42         71 
 65.44         72 
 65.46         67 
 65.48         73 
 65.5          85 
 65.52         81 
 65.54         75 
 65.56         97 
 65.58         99 
 65.6          105 
 65.62         95 
 65.64         98 
 65.66         105 
 65.68         112 
 65.7          111 
 65.72         119 
 65.74         139 
 65.76         157 
 65.78         166 
 65.8          183 
 65.82         202 
 65.84         215 
 65.86         224 
 65.88         271 
 65.9          268 
 65.92         364 
 65.94         400 
 65.96         395 
 65.98         487 
 66            509 
 66.02         567 
 66.04         584 
 66.06         689 
 66.08         665 
 66.1          648 
 66.12         699 
 66.14         639 
 66.16         645 
 66.18         607 
 66.2          554 
 66.22         528 
 66.24         475 
 66.26         464 
 66.28         457 
 66.3          438 
 66.32         379 
 66.34         314 
 66.36         287 
 66.38         263 
 66.4          215 
 66.42         205 
 66.44         203 
 66.46         171 
 66.48         136 
 66.5          137 
 66.52         114 
 66.54         139 
 66.56         132 
 66.58         121 
 66.6          89 
 66.62         77 
 66.64         88 
 66.66         83 
 66.68         92 
 66.7          90 
 66.72         69 
 66.74         69 
 66.76         88 
 66.78         77 
 66.8          81 
 66.82         91 
 66.84         75 
 66.86         79 
 66.88         74 
 66.9          64 
 66.92         88 
 66.94         69 
 66.96         68 
 66.98         52 
 67            66 
 67.02         68 
 67.04         52 
 67.06         71 
 67.08         64 
 67.1          62 
 67.12         66 
 67.14         62 
 67.16         66 
 67.18         51 
 67.2          55 
 67.22         52 
 67.24         52 
 67.26         54 
 67.28         62 
 67.3          48 
 67.32         56 
 67.34         44 
 67.36         51 
 67.38         40 
 67.4          44 
 67.42         56 
 67.44         57 
 67.46         56 
 67.48         45 
 67.5          59 
 67.52         53 
 67.54         47 
 67.56         57 
 67.58         42 
 67.6          54 
 67.62         48 
 67.64         41 
 67.66         50 
 67.68         52 
 67.7          40 
 67.72         51 
 67.74         51 
 67.76         52 
 67.78         39 
 67.8          51 
 67.82         52 
 67.84         47 
 67.86         52 
 67.88         38 
 67.9          46 
 67.92         40 
 67.94         35 
 67.96         32 
 67.98         35 
 68            40 
 68.02         44 
 68.04         36 
 68.06         44 
 68.08         41 
 68.1          48 
 68.12         38 
 68.14         46 
 68.16         41 
 68.18         55 
 68.2          48 
 68.22         36 
 68.24         49 
 68.26         42 
 68.28         42 
 68.3          52 
 68.32         51 
 68.34         46 
 68.36         55 
 68.38         36 
 68.4          39 
 68.42         29 
 68.44         61 
 68.46         54 
 68.48         37 
 68.5          33 
 68.52         32 
 68.54         41 
 68.56         53 
 68.58         39 
 68.6          42 
 68.62         41 
 68.64         40 
 68.66         43 
 68.68         40 
 68.7          45 
 68.72         50 
 68.74         53 
 68.76         49 
 68.78         44 
 68.8          46 
 68.82         50 
 68.84         42 
 68.86         51 
 68.88         58 
 68.9          60 
 68.92         64 
 68.94         50 
 68.96         67 
 68.98         65 
 69            53 
 69.02         57 
 69.04         55 
 69.06         62 
 69.08         64 
 69.1          60 
 69.12         55 
 69.14         50 
 69.16         63 
 69.18         46 
 69.2          60 
 69.22         53 
 69.24         41 
 69.26         42 
 69.28         46 
 69.3          35 
 69.32         44 
 69.34         51 
 69.36         45 
 69.38         44 
 69.4          48 
 69.42         52 
 69.44         46 
 69.46         38 
 69.48         35 
 69.5          57 
 69.52         31 
 69.54         45 
 69.56         37 
 69.58         50 
 69.6          50 
 69.62         47 
 69.64         39 
 69.66         49 
 69.68         51 
 69.7          43 
 69.72         46 
 69.74         56 
 69.76         57 
 69.78         45 
 69.8          45 
 69.82         43 
 69.84         45 
 69.86         44 
 69.88         38 
 69.9          41 
 69.92         47 
 69.94         45 
 69.96         50 
 69.98         33 
 70            48 
 70.02         42 
 70.04         50 
 70.06         47 
 70.08         50 
 70.1          53 
 70.12         45 
 70.14         56 
 70.16         35 
 70.18         35 
 70.2          39 
 70.22         35 
 70.24         38 
 70.26         42 
 70.28         45 
 70.3          38 
 70.32         38 
 70.34         39 
 70.36         41 
 70.38         41 
 70.4          46 
 70.42         31 
 70.44         38 
 70.46         25 
 70.48         31 
 70.5          37 
 70.52         35 
 70.54         34 
 70.56         38 
 70.58         40 
 70.6          44 
 70.62         36 
 70.64         44 
 70.66         32 
 70.68         33 
 70.7          42 
 70.72         41 
 70.74         29 
 70.76         42 
 70.78         31 
 70.8          32 
 70.82         28 
 70.84         43 
 70.86         29 
 70.88         34 
 70.9          41 
 70.92         32 
 70.94         36 
 70.96         41 
 70.98         29 
 71            35 
 71.02         47 
 71.04         34 
 71.06         34 
 71.08         33 
 71.1          41 
 71.12         32 
 71.14         30 
 71.16         24 
 71.18         28 
 71.2          30 
 71.22         37 
 71.24         39 
 71.26         48 
 71.28         27 
 71.3          45 
 71.32         30 
 71.34         39 
 71.36         41 
 71.38         40 
 71.4          31 
 71.42         35 
 71.44         29 
 71.46         40 
 71.48         48 
 71.5          36 
 71.52         38 
 71.54         36 
 71.56         29 
 71.58         32 
 71.6          40 
 71.62         34 
 71.64         34 
 71.66         43 
 71.68         28 
 71.7          38 
 71.72         46 
 71.74         29 
 71.76         41 
 71.78         32 
 71.8          26 
 71.82         32 
 71.84         32 
 71.86         29 
 71.88         30 
 71.9          25 
 71.92         38 
 71.94         39 
 71.96         43 
 71.98         29 
 72            36 
 72.02         33 
 72.04         37 
 72.06         33 
 72.08         40 
 72.1          37 
 72.12         39 
 72.14         30 
 72.16         27 
 72.18         38 
 72.2          30 
 72.22         34 
 72.24         42 
 72.26         34 
 72.28         41 
 72.3          28 
 72.32         28 
 72.34         27 
 72.36         39 
 72.38         30 
 72.4          36 
 72.42         41 
 72.44         39 
 72.46         30 
 72.48         33 
 72.5          30 
 72.52         27 
 72.54         40 
 72.56         35 
 72.58         36 
 72.6          44 
 72.62         28 
 72.64         39 
 72.66         32 
 72.68         45 
 72.7          42 
 72.72         32 
 72.74         47 
 72.76         42 
 72.78         38 
 72.8          47 
 72.82         34 
 72.84         36 
 72.86         33 
 72.88         42 
 72.9          43 
 72.92         32 
 72.94         35 
 72.96         37 
 72.98         35 
 73            38 
 73.02         34 
 73.04         39 
 73.06         30 
 73.08         30 
 73.1          36 
 73.12         40 
 73.14         37 
 73.16         38 
 73.18         36 
 73.2          34 
 73.22         33 
 73.24         25 
 73.26         47 
 73.28         41 
 73.3          50 
 73.32         31 
 73.34         36 
 73.36         37 
 73.38         36 
 73.4          34 
 73.42         34 
 73.44         39 
 73.46         46 
 73.48         32 
 73.5          31 
 73.52         34 
 73.54         35 
 73.56         40 
 73.58         32 
 73.6          36 
 73.62         40 
 73.64         34 
 73.66         44 
 73.68         41 
 73.7          38 
 73.72         39 
 73.74         49 
 73.76         40 
 73.78         46 
 73.8          38 
 73.82         51 
 73.84         65 
 73.86         41 
 73.88         54 
 73.9          55 
 73.92         42 
 73.93999      59 
 73.96         60 
 73.98         71 
 74            52 
 74.02         71 
 74.04         71 
 74.06         67 
 74.08         78 
 74.1          86 
 74.12         79 
 74.14         78 
 74.16         98 
 74.18         105 
 74.2          141 
 74.22         122 
 74.24         157 
 74.26         167 
 74.28         195 
 74.3          188 
 74.32         195 
 74.34         230 
 74.36         248 
 74.38         246 
 74.4          218 
 74.42         214 
 74.43999      216 
 74.46         180 
 74.48         185 
 74.5          193 
 74.52         189 
 74.54         160 
 74.56         187 
 74.58         158 
 74.6          141 
 74.62         142 
 74.64         138 
 74.66         127 
 74.68         124 
 74.7          87 
 74.72         99 
 74.74         83 
 74.76         94 
 74.78         79 
 74.8          79 
 74.82         79 
 74.84         64 
 74.86         56 
 74.88         71 
 74.9          67 
 74.92         55 
 74.93999      61 
 74.96         69 
 74.98         67 
 75            66 
