LTO Aldrich gesintert  Original Data
 3151 
 12            450 
 12.02         460 
 12.04         467 
 12.06         508 
 12.08         501 
 12.1          528 
 12.12         472 
 12.14         488 
 12.16         484 
 12.18         441 
 12.2          529 
 12.22         489 
 12.24         548 
 12.26         466 
 12.28         497 
 12.3          443 
 12.32         504 
 12.34         458 
 12.36         493 
 12.38         438 
 12.4          509 
 12.42         500 
 12.44         469 
 12.46         530 
 12.48         458 
 12.5          531 
 12.52         427 
 12.54         484 
 12.56         477 
 12.58         475 
 12.6          461 
 12.62         490 
 12.64         427 
 12.66         536 
 12.68         471 
 12.7          492 
 12.72         469 
 12.74         484 
 12.76         477 
 12.78         463 
 12.8          495 
 12.82         491 
 12.84         513 
 12.86         445 
 12.88         461 
 12.9          443 
 12.92         491 
 12.94         452 
 12.96         496 
 12.98         453 
 13            493 
 13.02         483 
 13.04         444 
 13.06         467 
 13.08         448 
 13.1          478 
 13.12         438 
 13.14         485 
 13.16         418 
 13.18         488 
 13.2          429 
 13.22         500 
 13.24         437 
 13.26         412 
 13.28         424 
 13.3          412 
 13.32         463 
 13.34         472 
 13.36         452 
 13.38         465 
 13.4          438 
 13.42         403 
 13.44         497 
 13.46         380 
 13.48         430 
 13.5          410 
 13.52         443 
 13.54         413 
 13.56         423 
 13.58         411 
 13.6          418 
 13.62         396 
 13.64         383 
 13.66         394 
 13.68         372 
 13.7          356 
 13.72         358 
 13.74         414 
 13.76         392 
 13.78         422 
 13.8          358 
 13.82         377 
 13.84         352 
 13.86         359 
 13.88         379 
 13.9          370 
 13.92         375 
 13.94         369 
 13.96         354 
 13.98         324 
 14            355 
 14.02         346 
 14.04         364 
 14.06         362 
 14.08         345 
 14.1          318 
 14.12         352 
 14.14         323 
 14.16         349 
 14.18         361 
 14.2          328 
 14.22         331 
 14.24         309 
 14.26         317 
 14.28         306 
 14.3          327 
 14.32         308 
 14.34         317 
 14.36         341 
 14.38         342 
 14.4          280 
 14.42         330 
 14.44         303 
 14.46         288 
 14.48         315 
 14.5          309 
 14.52         303 
 14.54         295 
 14.56         301 
 14.58         309 
 14.6          296 
 14.62         267 
 14.64         300 
 14.66         246 
 14.68         287 
 14.7          272 
 14.72         290 
 14.74         268 
 14.76         289 
 14.78         310 
 14.8          296 
 14.82         258 
 14.84         294 
 14.86         293 
 14.88         249 
 14.9          245 
 14.92         240 
 14.94         264 
 14.96         256 
 14.98         244 
 15            262 
 15.02         254 
 15.04         251 
 15.06         233 
 15.08         250 
 15.1          225 
 15.12         225 
 15.14         225 
 15.16         263 
 15.18         232 
 15.2          234 
 15.22         228 
 15.24         229 
 15.26         216 
 15.28         208 
 15.3          243 
 15.32         253 
 15.34         244 
 15.36         228 
 15.38         209 
 15.4          239 
 15.42         217 
 15.44         227 
 15.46         191 
 15.48         224 
 15.5          221 
 15.52         203 
 15.54         211 
 15.56         188 
 15.58         201 
 15.6          214 
 15.62         215 
 15.64         199 
 15.66         230 
 15.68         197 
 15.7          184 
 15.72         215 
 15.74         195 
 15.76         205 
 15.78         195 
 15.8          217 
 15.82         228 
 15.84         218 
 15.86         195 
 15.88         213 
 15.9          210 
 15.92         201 
 15.94         196 
 15.96         196 
 15.98         201 
 16            181 
 16.02         178 
 16.04         195 
 16.06         188 
 16.08         187 
 16.1          215 
 16.12         173 
 16.14         185 
 16.16         197 
 16.18         201 
 16.2          169 
 16.22         215 
 16.24         173 
 16.26         189 
 16.28         187 
 16.3          184 
 16.32         199 
 16.34         192 
 16.36         146 
 16.38         157 
 16.4          175 
 16.42         158 
 16.44         178 
 16.46         163 
 16.48         172 
 16.5          176 
 16.52         199 
 16.54         180 
 16.56         173 
 16.58         156 
 16.6          181 
 16.62         174 
 16.64         187 
 16.66         168 
 16.68         186 
 16.7          188 
 16.72         169 
 16.74         179 
 16.76         187 
 16.78         173 
 16.8          188 
 16.82         184 
 16.84         134 
 16.86         178 
 16.88         169 
 16.9          169 
 16.92         176 
 16.94         160 
 16.96         154 
 16.98         169 
 17            156 
 17.02         144 
 17.04         156 
 17.06         133 
 17.08         152 
 17.1          162 
 17.12         145 
 17.14         139 
 17.16         134 
 17.18         149 
 17.2          154 
 17.22         142 
 17.24         138 
 17.26         163 
 17.28         150 
 17.3          164 
 17.32         151 
 17.34         158 
 17.36         138 
 17.38         128 
 17.4          163 
 17.42         163 
 17.44         133 
 17.46         133 
 17.48         151 
 17.5          162 
 17.52         152 
 17.54         153 
 17.56         144 
 17.58         150 
 17.6          134 
 17.62         160 
 17.64         147 
 17.66         150 
 17.68         166 
 17.7          148 
 17.72         125 
 17.74         173 
 17.76         142 
 17.78         166 
 17.8          147 
 17.82         167 
 17.84         154 
 17.86         138 
 17.88         162 
 17.9          156 
 17.92         147 
 17.94         155 
 17.96         154 
 17.98         168 
 18            175 
 18.02         179 
 18.04         193 
 18.06         192 
 18.08         227 
 18.1          248 
 18.12         229 
 18.14         283 
 18.16         316 
 18.18         329 
 18.2          387 
 18.22         499 
 18.24         592 
 18.26         801 
 18.28         964 
 18.3          1278 
 18.32         1583 
 18.34         2028 
 18.36         2253 
 18.38         2520 
 18.4          2570 
 18.42         2300 
 18.44         1771 
 18.46         1222 
 18.48         790 
 18.5          517 
 18.52         391 
 18.54         274 
 18.56         215 
 18.58         199 
 18.6          205 
 18.62         179 
 18.64         158 
 18.66         154 
 18.68         167 
 18.7          173 
 18.72         146 
 18.74         130 
 18.76         134 
 18.78         135 
 18.8          126 
 18.82         137 
 18.84         120 
 18.86         121 
 18.88         127 
 18.9          143 
 18.92         119 
 18.94         146 
 18.96         135 
 18.98         115 
 19            122 
 19.02         136 
 19.04         126 
 19.06         144 
 19.08         121 
 19.1          132 
 19.12         128 
 19.14         121 
 19.16         110 
 19.18         100 
 19.2          110 
 19.22         112 
 19.24         125 
 19.26         139 
 19.28         113 
 19.3          125 
 19.32         131 
 19.34         98 
 19.36         117 
 19.38         117 
 19.4          109 
 19.42         130 
 19.44         125 
 19.46         116 
 19.48         110 
 19.5          112 
 19.52         102 
 19.54         116 
 19.56         137 
 19.58         117 
 19.6          110 
 19.62         123 
 19.64         98 
 19.66         123 
 19.68         129 
 19.7          101 
 19.72         113 
 19.74         108 
 19.76         121 
 19.78         104 
 19.8          100 
 19.82         106 
 19.84         114 
 19.86         103 
 19.88         137 
 19.9          111 
 19.92         117 
 19.94         119 
 19.96         125 
 19.98         109 
 20            123 
 20.02         119 
 20.04         87 
 20.06         94 
 20.08         119 
 20.1          93 
 20.12         125 
 20.14         111 
 20.16         107 
 20.18         107 
 20.2          101 
 20.22         108 
 20.24         112 
 20.26         103 
 20.28         101 
 20.3          113 
 20.32         109 
 20.34         106 
 20.36         91 
 20.38         91 
 20.4          99 
 20.42         115 
 20.44         103 
 20.46         99 
 20.48         112 
 20.5          106 
 20.52         124 
 20.54         93 
 20.56         119 
 20.58         96 
 20.6          118 
 20.62         93 
 20.64         104 
 20.66         104 
 20.68         129 
 20.7          100 
 20.72         88 
 20.74         102 
 20.76         88 
 20.78         95 
 20.8          100 
 20.82         108 
 20.84         99 
 20.86         92 
 20.88         115 
 20.9          105 
 20.92         100 
 20.94         104 
 20.96         114 
 20.98         95 
 21            121 
 21.02         97 
 21.04         99 
 21.06         91 
 21.08         111 
 21.1          123 
 21.12         114 
 21.14         109 
 21.16         119 
 21.18         101 
 21.2          108 
 21.22         105 
 21.24         105 
 21.26         99 
 21.28         109 
 21.3          86 
 21.32         102 
 21.34         82 
 21.36         90 
 21.38         102 
 21.4          104 
 21.42         100 
 21.44         90 
 21.46         90 
 21.48         97 
 21.5          102 
 21.52         106 
 21.54         103 
 21.56         90 
 21.58         91 
 21.6          101 
 21.62         106 
 21.64         97 
 21.66         83 
 21.68         91 
 21.7          97 
 21.72         100 
 21.74         96 
 21.76         90 
 21.78         76 
 21.8          94 
 21.82         103 
 21.84         80 
 21.86         77 
 21.88         85 
 21.9          75 
 21.92         82 
 21.94         84 
 21.96         79 
 21.98         79 
 22            87 
 22.02         87 
 22.04         86 
 22.06         90 
 22.08         95 
 22.1          88 
 22.12         100 
 22.14         93 
 22.16         91 
 22.18         110 
 22.2          109 
 22.22         94 
 22.24         71 
 22.26         76 
 22.28         107 
 22.3          96 
 22.32         91 
 22.34         87 
 22.36         87 
 22.38         95 
 22.4          101 
 22.42         84 
 22.44         100 
 22.46         83 
 22.48         95 
 22.5          91 
 22.52         87 
 22.54         82 
 22.56         77 
 22.58         87 
 22.6          93 
 22.62         90 
 22.64         98 
 22.66         82 
 22.68         84 
 22.7          72 
 22.72         92 
 22.74         91 
 22.76         86 
 22.78         91 
 22.8          92 
 22.82         75 
 22.84         94 
 22.86         95 
 22.88         71 
 22.9          72 
 22.92         68 
 22.94         102 
 22.96         78 
 22.98         84 
 23            72 
 23.02         73 
 23.04         76 
 23.06         75 
 23.08         81 
 23.1          79 
 23.12         87 
 23.14         78 
 23.16         82 
 23.18         100 
 23.2          87 
 23.22         75 
 23.24         77 
 23.26         80 
 23.28         91 
 23.3          85 
 23.32         72 
 23.34         78 
 23.36         81 
 23.38         83 
 23.4          66 
 23.42         91 
 23.44         80 
 23.46         81 
 23.48         85 
 23.5          79 
 23.52         93 
 23.54         78 
 23.56         85 
 23.58         88 
 23.6          92 
 23.62         81 
 23.64         73 
 23.66         81 
 23.68         63 
 23.7          79 
 23.72         84 
 23.74         89 
 23.76         92 
 23.78         77 
 23.8          81 
 23.82         79 
 23.84         65 
 23.86         77 
 23.88         90 
 23.9          73 
 23.92         85 
 23.94         84 
 23.96         79 
 23.98         87 
 24            87 
 24.02         84 
 24.04         79 
 24.06         70 
 24.08         88 
 24.1          100 
 24.12         75 
 24.14         82 
 24.16         77 
 24.18         69 
 24.2          66 
 24.22         71 
 24.24         82 
 24.26         82 
 24.28         77 
 24.3          72 
 24.32         76 
 24.34         89 
 24.36         80 
 24.38         77 
 24.4          74 
 24.42         101 
 24.44         76 
 24.46         86 
 24.48         79 
 24.5          85 
 24.52         75 
 24.54         77 
 24.56         82 
 24.58         82 
 24.6          76 
 24.62         83 
 24.64         75 
 24.66         74 
 24.68         70 
 24.7          66 
 24.72         77 
 24.74         73 
 24.76         83 
 24.78         67 
 24.8          68 
 24.82         84 
 24.84         72 
 24.86         72 
 24.88         84 
 24.9          76 
 24.92         69 
 24.94         64 
 24.96         79 
 24.98         79 
 25            80 
 25.02         74 
 25.04         85 
 25.06         80 
 25.08         85 
 25.1          75 
 25.12         78 
 25.14         78 
 25.16         71 
 25.18         71 
 25.2          86 
 25.22         66 
 25.24         85 
 25.26         74 
 25.28         70 
 25.3          85 
 25.32         70 
 25.34         84 
 25.36         71 
 25.38         68 
 25.4          73 
 25.42         76 
 25.44         77 
 25.46         78 
 25.48         80 
 25.5          70 
 25.52         90 
 25.54         84 
 25.56         65 
 25.58         89 
 25.6          55 
 25.62         89 
 25.64         78 
 25.66         78 
 25.68         77 
 25.7          76 
 25.72         75 
 25.74         81 
 25.76         72 
 25.78         73 
 25.8          63 
 25.82         69 
 25.84         68 
 25.86         65 
 25.88         74 
 25.9          62 
 25.92         66 
 25.94         76 
 25.96         60 
 25.98         69 
 26            74 
 26.02         75 
 26.04         72 
 26.06         60 
 26.08         67 
 26.1          73 
 26.12         83 
 26.14         64 
 26.16         60 
 26.18         64 
 26.2          82 
 26.22         71 
 26.24         65 
 26.26         74 
 26.28         56 
 26.3          48 
 26.32         72 
 26.34         66 
 26.36         61 
 26.38         78 
 26.4          66 
 26.42         60 
 26.44         54 
 26.46         62 
 26.48         73 
 26.5          67 
 26.52         84 
 26.54         56 
 26.56         73 
 26.58         73 
 26.6          91 
 26.62         70 
 26.64         77 
 26.66         52 
 26.68         74 
 26.7          59 
 26.72         66 
 26.74         59 
 26.76         56 
 26.78         67 
 26.8          69 
 26.82         65 
 26.84         68 
 26.86         74 
 26.88         69 
 26.9          53 
 26.92         65 
 26.94         66 
 26.96         65 
 26.98         79 
 27            63 
 27.02         66 
 27.04         66 
 27.06         67 
 27.08         66 
 27.1          55 
 27.12         74 
 27.14         69 
 27.16         63 
 27.18         89 
 27.2          61 
 27.22         71 
 27.24         67 
 27.26         75 
 27.28         74 
 27.3          72 
 27.32         64 
 27.34         62 
 27.36         72 
 27.38         77 
 27.4          66 
 27.42         71 
 27.44         80 
 27.46         85 
 27.48         75 
 27.5          89 
 27.52         79 
 27.54         62 
 27.56         74 
 27.58         69 
 27.6          68 
 27.62         62 
 27.64         67 
 27.66         60 
 27.68         79 
 27.7          80 
 27.72         74 
 27.74         81 
 27.76         66 
 27.78         72 
 27.8          58 
 27.82         61 
 27.84         61 
 27.86         76 
 27.88         68 
 27.9          53 
 27.92         74 
 27.94         64 
 27.96         68 
 27.98         59 
 28            56 
 28.02         70 
 28.04         61 
 28.06         62 
 28.08         63 
 28.1          59 
 28.12         71 
 28.14         64 
 28.16         72 
 28.18         52 
 28.2          59 
 28.22         70 
 28.24         59 
 28.26         49 
 28.28         56 
 28.3          60 
 28.32         61 
 28.34         59 
 28.36         66 
 28.38         64 
 28.4          69 
 28.42         66 
 28.44         60 
 28.46         65 
 28.48         57 
 28.5          71 
 28.52         71 
 28.54         66 
 28.56         47 
 28.58         67 
 28.6          58 
 28.62         63 
 28.64         68 
 28.66         59 
 28.68         46 
 28.7          43 
 28.72         51 
 28.74         64 
 28.76         57 
 28.78         59 
 28.8          63 
 28.82         59 
 28.84         60 
 28.86         71 
 28.88         56 
 28.9          56 
 28.92         47 
 28.94         63 
 28.96         61 
 28.98         64 
 29            58 
 29.02         57 
 29.04         53 
 29.06         57 
 29.08         59 
 29.1          64 
 29.12         47 
 29.14         49 
 29.16         63 
 29.18         60 
 29.2          41 
 29.22         54 
 29.24         56 
 29.26         59 
 29.28         54 
 29.3          59 
 29.32         61 
 29.34         58 
 29.36         50 
 29.38         54 
 29.4          56 
 29.42         60 
 29.44         49 
 29.46         62 
 29.48         52 
 29.5          67 
 29.52         38 
 29.54         68 
 29.56         43 
 29.58         62 
 29.6          52 
 29.62         52 
 29.64         50 
 29.66         56 
 29.68         48 
 29.7          59 
 29.72         52 
 29.74         50 
 29.76         43 
 29.78         56 
 29.8          54 
 29.82         45 
 29.84         46 
 29.86         63 
 29.88         65 
 29.9          49 
 29.92         49 
 29.94         42 
 29.96         65 
 29.98         49 
 30            63 
 30.02         54 
 30.04         48 
 30.06         54 
 30.08         53 
 30.1          65 
 30.12         61 
 30.14         52 
 30.16         67 
 30.18         74 
 30.2          83 
 30.22         93 
 30.24         71 
 30.26         86 
 30.28         68 
 30.3          76 
 30.32         72 
 30.34         61 
 30.36         71 
 30.38         57 
 30.4          56 
 30.42         58 
 30.44         58 
 30.46         48 
 30.48         58 
 30.5          55 
 30.52         43 
 30.54         54 
 30.56         60 
 30.58         57 
 30.6          50 
 30.62         56 
 30.64         56 
 30.66         60 
 30.68         53 
 30.7          54 
 30.72         45 
 30.74         53 
 30.76         60 
 30.78         47 
 30.8          51 
 30.82         46 
 30.84         39 
 30.86         46 
 30.88         44 
 30.9          50 
 30.92         52 
 30.94         48 
 30.96         46 
 30.98         61 
 31            55 
 31.02         47 
 31.04         47 
 31.06         52 
 31.08         44 
 31.1          50 
 31.12         55 
 31.14         47 
 31.16         49 
 31.18         46 
 31.2          44 
 31.22         47 
 31.24         57 
 31.26         44 
 31.28         53 
 31.3          43 
 31.32         44 
 31.34         45 
 31.36         42 
 31.38         49 
 31.4          48 
 31.42         38 
 31.44         41 
 31.46         45 
 31.48         43 
 31.5          55 
 31.52         47 
 31.54         46 
 31.56         66 
 31.58         43 
 31.6          57 
 31.62         48 
 31.64         43 
 31.66         35 
 31.68         51 
 31.7          56 
 31.72         68 
 31.74         53 
 31.76         35 
 31.78         59 
 31.8          39 
 31.82         35 
 31.84         50 
 31.86         55 
 31.88         47 
 31.9          45 
 31.92         45 
 31.94         47 
 31.96         39 
 31.98         51 
 32            51 
 32.02         44 
 32.04         37 
 32.06         44 
 32.08         43 
 32.1          53 
 32.12         49 
 32.14         45 
 32.16         42 
 32.18         42 
 32.2          38 
 32.22         42 
 32.24         52 
 32.26         41 
 32.28         64 
 32.3          47 
 32.32         49 
 32.34         45 
 32.36         57 
 32.38         41 
 32.4          44 
 32.42         44 
 32.44         35 
 32.46         44 
 32.48         40 
 32.5          44 
 32.52         46 
 32.54         32 
 32.56         43 
 32.58         52 
 32.6          39 
 32.62         38 
 32.64         39 
 32.66         37 
 32.68         50 
 32.7          59 
 32.72         27 
 32.74         36 
 32.76         48 
 32.78         40 
 32.8          35 
 32.82         48 
 32.84         39 
 32.86         37 
 32.88         29 
 32.9          35 
 32.92         32 
 32.94         43 
 32.96         46 
 32.98         46 
 33            39 
 33.02         46 
 33.04         41 
 33.06         41 
 33.08         36 
 33.1          47 
 33.12         37 
 33.14         40 
 33.16         39 
 33.18         34 
 33.2          39 
 33.22         53 
 33.24         34 
 33.26         45 
 33.28         51 
 33.3          48 
 33.32         59 
 33.34         48 
 33.36         52 
 33.38         58 
 33.4          51 
 33.42         52 
 33.44         45 
 33.46         42 
 33.48         38 
 33.5          36 
 33.52         38 
 33.54         34 
 33.56         38 
 33.58         40 
 33.6          39 
 33.62         46 
 33.64         49 
 33.66         40 
 33.68         37 
 33.7          43 
 33.72         33 
 33.74         38 
 33.76         33 
 33.78         49 
 33.8          47 
 33.82         28 
 33.84         33 
 33.86         31 
 33.88         40 
 33.9          38 
 33.92         39 
 33.94         42 
 33.96         43 
 33.98         30 
 34            46 
 34.02         35 
 34.04         43 
 34.06         38 
 34.08         34 
 34.1          29 
 34.12         46 
 34.14         33 
 34.16         25 
 34.18         40 
 34.2          37 
 34.22         29 
 34.24         39 
 34.26         41 
 34.28         38 
 34.3          39 
 34.32         34 
 34.34         30 
 34.36         49 
 34.38         26 
 34.4          48 
 34.42         42 
 34.44         35 
 34.46         47 
 34.48         36 
 34.5          49 
 34.52         44 
 34.54         50 
 34.56         35 
 34.58         48 
 34.6          41 
 34.62         43 
 34.64         48 
 34.66         44 
 34.68         43 
 34.7          42 
 34.72         44 
 34.74         34 
 34.76         40 
 34.78         37 
 34.8          37 
 34.82         45 
 34.84         46 
 34.86         38 
 34.88         41 
 34.9          49 
 34.92         57 
 34.94         31 
 34.96         44 
 34.98         34 
 35            44 
 35.02         61 
 35.04         46 
 35.06         46 
 35.08         57 
 35.1          49 
 35.12         58 
 35.14         67 
 35.16         59 
 35.18         70 
 35.2          58 
 35.22         84 
 35.24         88 
 35.26         89 
 35.28         104 
 35.3          128 
 35.32         148 
 35.34         143 
 35.36         140 
 35.38         191 
 35.4          168 
 35.42         195 
 35.44         248 
 35.46         315 
 35.48         387 
 35.5          462 
 35.52         636 
 35.54         905 
 35.56         1146 
 35.58         1491 
 35.6          1755 
 35.62         1795 
 35.64         1805 
 35.66         1653 
 35.68         1365 
 35.7          1120 
 35.72         829 
 35.74         682 
 35.76         491 
 35.78         307 
 35.8          214 
 35.82         142 
 35.84         127 
 35.86         102 
 35.88         109 
 35.9          91 
 35.92         88 
 35.94         78 
 35.96         84 
 35.98         92 
 36            68 
 36.02         76 
 36.04         76 
 36.06         74 
 36.08         51 
 36.1          76 
 36.12         62 
 36.14         49 
 36.16         56 
 36.18         41 
 36.2          39 
 36.22         31 
 36.24         52 
 36.26         46 
 36.28         36 
 36.3          33 
 36.32         41 
 36.34         42 
 36.36         25 
 36.38         32 
 36.4          45 
 36.42         37 
 36.44         35 
 36.46         35 
 36.48         40 
 36.5          36 
 36.52         36 
 36.54         29 
 36.56         45 
 36.58         45 
 36.6          42 
 36.62         37 
 36.64         38 
 36.66         37 
 36.68         25 
 36.7          27 
 36.72         36 
 36.74         46 
 36.76         30 
 36.78         32 
 36.8          29 
 36.82         43 
 36.84         29 
 36.86         33 
 36.88         47 
 36.9          33 
 36.92         34 
 36.94         27 
 36.96         39 
 36.98         35 
 37            36 
 37.02         38 
 37.04         40 
 37.06         36 
 37.08         30 
 37.1          36 
 37.12         44 
 37.14         62 
 37.16         48 
 37.18         65 
 37.2          73 
 37.22         105 
 37.24         94 
 37.26         99 
 37.28         117 
 37.3          108 
 37.32         83 
 37.34         75 
 37.36         70 
 37.38         72 
 37.4          73 
 37.42         34 
 37.44         38 
 37.46         37 
 37.48         36 
 37.5          25 
 37.52         31 
 37.54         29 
 37.56         35 
 37.58         40 
 37.6          35 
 37.62         35 
 37.64         28 
 37.66         38 
 37.68         26 
 37.7          27 
 37.72         35 
 37.74         36 
 37.76         25 
 37.78         34 
 37.8          30 
 37.82         37 
 37.84         26 
 37.86         39 
 37.88         38 
 37.9          28 
 37.92         24 
 37.94         31 
 37.96         21 
 37.98         40 
 38            25 
 38.02         25 
 38.04         37 
 38.06         31 
 38.08         41 
 38.1          41 
 38.12         20 
 38.14         27 
 38.16         31 
 38.18         29 
 38.2          22 
 38.22         29 
 38.24         29 
 38.26         41 
 38.28         27 
 38.3          19 
 38.32         33 
 38.34         36 
 38.36         25 
 38.38         31 
 38.4          16 
 38.42         38 
 38.44         40 
 38.46         24 
 38.48         28 
 38.5          34 
 38.52         26 
 38.54         17 
 38.56         42 
 38.58         20 
 38.6          20 
 38.62         20 
 38.64         21 
 38.66         28 
 38.68         12 
 38.7          30 
 38.72         27 
 38.74         34 
 38.76         23 
 38.78         42 
 38.8          26 
 38.82         27 
 38.84         27 
 38.86         14 
 38.88         28 
 38.9          29 
 38.92         31 
 38.94         29 
 38.96         36 
 38.98         29 
 39            31 
 39.02         23 
 39.04         29 
 39.06         22 
 39.08         26 
 39.1          32 
 39.12         33 
 39.14         25 
 39.16         30 
 39.18         29 
 39.2          28 
 39.22         31 
 39.24         30 
 39.26         32 
 39.28         30 
 39.3          29 
 39.32         35 
 39.34         23 
 39.36         34 
 39.38         27 
 39.4          28 
 39.42         24 
 39.44         27 
 39.46         27 
 39.48         26 
 39.5          30 
 39.52         30 
 39.54         28 
 39.56         23 
 39.58         30 
 39.6          27 
 39.62         25 
 39.64         29 
 39.66         29 
 39.68         27 
 39.7          23 
 39.72         27 
 39.74         23 
 39.76         21 
 39.78         27 
 39.8          29 
 39.82         34 
 39.84         36 
 39.86         27 
 39.88         29 
 39.9          34 
 39.92         24 
 39.94         19 
 39.96         38 
 39.98         21 
 40            40 
 40.02         27 
 40.04         26 
 40.06         19 
 40.08         33 
 40.1          39 
 40.12         29 
 40.14         32 
 40.16         22 
 40.18         30 
 40.2          37 
 40.22         34 
 40.24         26 
 40.26         27 
 40.28         34 
 40.3          25 
 40.32         26 
 40.34         27 
 40.36         35 
 40.38         36 
 40.4          29 
 40.42         36 
 40.44         26 
 40.46         24 
 40.48         25 
 40.5          24 
 40.52         27 
 40.54         24 
 40.56         27 
 40.58         29 
 40.6          27 
 40.62         20 
 40.64         24 
 40.66         37 
 40.68         25 
 40.7          31 
 40.72         35 
 40.74         32 
 40.76         27 
 40.78         31 
 40.8          28 
 40.82         31 
 40.84         36 
 40.86         18 
 40.88         22 
 40.9          28 
 40.92         22 
 40.94         21 
 40.96         24 
 40.98         25 
 41            35 
 41.02         27 
 41.04         26 
 41.06         24 
 41.08         32 
 41.1          27 
 41.12         36 
 41.14         19 
 41.16         23 
 41.18         35 
 41.2          26 
 41.22         27 
 41.24         31 
 41.26         24 
 41.28         27 
 41.3          33 
 41.32         28 
 41.34         22 
 41.36         35 
 41.38         31 
 41.4          36 
 41.42         29 
 41.44         31 
 41.46         28 
 41.48         28 
 41.5          24 
 41.52         26 
 41.54         24 
 41.56         24 
 41.58         31 
 41.6          23 
 41.62         21 
 41.64         35 
 41.66         27 
 41.68         33 
 41.7          23 
 41.72         38 
 41.74         23 
 41.76         33 
 41.78         20 
 41.8          27 
 41.82         37 
 41.84         44 
 41.86         30 
 41.88         32 
 41.9          28 
 41.92         42 
 41.94         29 
 41.96         27 
 41.98         36 
 42            26 
 42.02         21 
 42.04         31 
 42.06         44 
 42.08         26 
 42.1          30 
 42.12         36 
 42.14         21 
 42.16         37 
 42.18         34 
 42.2          28 
 42.22         30 
 42.24         31 
 42.26         35 
 42.28         30 
 42.3          27 
 42.32         29 
 42.34         28 
 42.36         47 
 42.38         35 
 42.4          39 
 42.42         37 
 42.44         42 
 42.46         44 
 42.48         48 
 42.5          42 
 42.52         47 
 42.54         41 
 42.56         54 
 42.58         70 
 42.6          58 
 42.62         60 
 42.64         66 
 42.66         61 
 42.68         68 
 42.7          73 
 42.72         72 
 42.74         78 
 42.76         84 
 42.78         98 
 42.8          79 
 42.82         122 
 42.84         143 
 42.86         130 
 42.88         130 
 42.9          163 
 42.92         142 
 42.94         179 
 42.96         175 
 42.98         229 
 43            248 
 43.02         248 
 43.04         286 
 43.06         310 
 43.08         387 
 43.1          401 
 43.12         467 
 43.14         575 
 43.16         682 
 43.18         1003 
 43.2          1299 
 43.22         1727 
 43.24         2170 
 43.26         2452 
 43.28         2733 
 43.3          2800 
 43.32         2633 
 43.34         2222 
 43.36         2025 
 43.38         1862 
 43.4          1554 
 43.42         1292 
 43.44         989 
 43.46         700 
 43.48         437 
 43.5          337 
 43.52         267 
 43.54         212 
 43.56         169 
 43.58         169 
 43.6          156 
 43.62         140 
 43.64         131 
 43.66         133 
 43.68         147 
 43.7          121 
 43.72         99 
 43.74         97 
 43.76         93 
 43.78         81 
 43.8          73 
 43.82         86 
 43.84         61 
 43.86         63 
 43.88         67 
 43.9          55 
 43.92         53 
 43.94         41 
 43.96         47 
 43.98         42 
 44            49 
 44.02         33 
 44.04         20 
 44.06         34 
 44.08         36 
 44.1          37 
 44.12         40 
 44.14         29 
 44.16         36 
 44.18         25 
 44.2          27 
 44.22         38 
 44.24         34 
 44.26         33 
 44.28         28 
 44.3          30 
 44.32         28 
 44.34         34 
 44.36         36 
 44.38         37 
 44.4          31 
 44.42         38 
 44.44         31 
 44.46         37 
 44.48         25 
 44.5          37 
 44.52         26 
 44.54         24 
 44.56         22 
 44.58         26 
 44.6          22 
 44.62         29 
 44.64         23 
 44.66         24 
 44.68         30 
 44.7          25 
 44.72         28 
 44.74         31 
 44.76         29 
 44.78         24 
 44.8          20 
 44.82         27 
 44.84         29 
 44.86         29 
 44.88         20 
 44.9          29 
 44.92         24 
 44.94         25 
 44.96         20 
 44.98         30 
 45            22 
 45.02         39 
 45.04         38 
 45.06         28 
 45.08         20 
 45.1          18 
 45.12         33 
 45.14         23 
 45.16         35 
 45.18         18 
 45.2          22 
 45.22         24 
 45.24         26 
 45.26         17 
 45.28         29 
 45.3          28 
 45.32         42 
 45.34         25 
 45.36         29 
 45.38         22 
 45.4          25 
 45.42         20 
 45.44         25 
 45.46         29 
 45.48         32 
 45.5          37 
 45.52         16 
 45.54         28 
 45.56         22 
 45.58         22 
 45.6          23 
 45.62         15 
 45.64         22 
 45.66         20 
 45.68         36 
 45.7          21 
 45.72         23 
 45.74         25 
 45.76         20 
 45.78         22 
 45.8          21 
 45.82         29 
 45.84         28 
 45.86         36 
 45.88         28 
 45.9          25 
 45.92         25 
 45.94         31 
 45.96         23 
 45.98         21 
 46            24 
 46.02         19 
 46.04         26 
 46.06         25 
 46.08         23 
 46.1          21 
 46.12         18 
 46.14         30 
 46.16         19 
 46.18         16 
 46.2          28 
 46.22         25 
 46.24         20 
 46.26         21 
 46.28         31 
 46.3          28 
 46.32         24 
 46.34         16 
 46.36         18 
 46.38         30 
 46.4          16 
 46.42         24 
 46.44         25 
 46.46         22 
 46.48         23 
 46.5          12 
 46.52         16 
 46.54         15 
 46.56         27 
 46.58         29 
 46.6          21 
 46.62         30 
 46.64         36 
 46.66         28 
 46.68         25 
 46.7          29 
 46.72         19 
 46.74         17 
 46.76         25 
 46.78         29 
 46.8          26 
 46.82         34 
 46.84         34 
 46.86         40 
 46.88         27 
 46.9          27 
 46.92         27 
 46.94         19 
 46.96         22 
 46.98         31 
 47            37 
 47.02         30 
 47.04         37 
 47.06         40 
 47.08         31 
 47.1          41 
 47.12         35 
 47.14         41 
 47.16         35 
 47.18         49 
 47.2          58 
 47.22         48 
 47.24         71 
 47.26         84 
 47.28         103 
 47.3          117 
 47.32         159 
 47.34         228 
 47.36         295 
 47.38         304 
 47.4          339 
 47.42         311 
 47.44         279 
 47.46         233 
 47.48         208 
 47.5          185 
 47.52         157 
 47.54         181 
 47.56         129 
 47.58         91 
 47.6          70 
 47.62         65 
 47.64         50 
 47.66         45 
 47.68         43 
 47.7          37 
 47.72         30 
 47.74         33 
 47.76         37 
 47.78         41 
 47.8          28 
 47.82         27 
 47.84         25 
 47.86         35 
 47.88         31 
 47.9          30 
 47.92         29 
 47.94         27 
 47.96         23 
 47.98         26 
 48            28 
 48.02         27 
 48.04         24 
 48.06         28 
 48.08         25 
 48.1          21 
 48.12         25 
 48.14         29 
 48.16         25 
 48.18         20 
 48.2          13 
 48.22         24 
 48.24         33 
 48.26         25 
 48.28         29 
 48.3          26 
 48.32         20 
 48.34         16 
 48.36         27 
 48.38         19 
 48.4          31 
 48.42         25 
 48.44         29 
 48.46         13 
 48.48         23 
 48.5          26 
 48.52         24 
 48.54         26 
 48.56         28 
 48.58         18 
 48.6          27 
 48.62         22 
 48.64         23 
 48.66         25 
 48.68         18 
 48.7          24 
 48.72         23 
 48.74         17 
 48.76         32 
 48.78         20 
 48.8          20 
 48.82         17 
 48.84         21 
 48.86         25 
 48.88         30 
 48.9          15 
 48.92         32 
 48.94         26 
 48.96         18 
 48.98         19 
 49            17 
 49.02         17 
 49.04         27 
 49.06         23 
 49.08         27 
 49.1          20 
 49.12         16 
 49.14         23 
 49.16         15 
 49.18         17 
 49.2          23 
 49.22         23 
 49.24         17 
 49.26         22 
 49.28         21 
 49.3          22 
 49.32         16 
 49.34         28 
 49.36         18 
 49.38         21 
 49.4          25 
 49.42         23 
 49.44         26 
 49.46         24 
 49.48         21 
 49.5          26 
 49.52         23 
 49.54         21 
 49.56         20 
 49.58         18 
 49.6          16 
 49.62         26 
 49.64         21 
 49.66         20 
 49.68         23 
 49.7          25 
 49.72         23 
 49.74         27 
 49.76         19 
 49.78         22 
 49.8          26 
 49.82         30 
 49.84         22 
 49.86         25 
 49.88         21 
 49.9          21 
 49.92         21 
 49.94         19 
 49.96         30 
 49.98         22 
 50            20 
 50.02         25 
 50.04         22 
 50.06         29 
 50.08         20 
 50.1          16 
 50.12         14 
 50.14         17 
 50.16         21 
 50.18         23 
 50.2          21 
 50.22         23 
 50.24         28 
 50.26         19 
 50.28         24 
 50.3          22 
 50.32         20 
 50.34         17 
 50.36         20 
 50.38         28 
 50.4          20 
 50.42         28 
 50.44         26 
 50.46         19 
 50.48         32 
 50.5          19 
 50.52         27 
 50.54         31 
 50.56         24 
 50.58         23 
 50.6          22 
 50.62         25 
 50.64         25 
 50.66         26 
 50.68         20 
 50.7          32 
 50.72         23 
 50.74         27 
 50.76         18 
 50.78         22 
 50.8          20 
 50.82         31 
 50.84         24 
 50.86         25 
 50.88         16 
 50.9          27 
 50.92         19 
 50.94         21 
 50.96         26 
 50.98         34 
 51            26 
 51.02         22 
 51.04         22 
 51.06         23 
 51.08         28 
 51.1          13 
 51.12         23 
 51.14         23 
 51.16         25 
 51.18         21 
 51.2          26 
 51.22         16 
 51.24         14 
 51.26         18 
 51.28         24 
 51.3          14 
 51.32         17 
 51.34         20 
 51.36         30 
 51.38         23 
 51.4          17 
 51.42         35 
 51.44         22 
 51.46         20 
 51.48         32 
 51.5          23 
 51.52         26 
 51.54         21 
 51.56         22 
 51.58         25 
 51.6          24 
 51.62         31 
 51.64         32 
 51.66         20 
 51.68         21 
 51.7          27 
 51.72         20 
 51.74         19 
 51.76         24 
 51.78         19 
 51.8          17 
 51.82         19 
 51.84         23 
 51.86         29 
 51.88         24 
 51.9          22 
 51.92         23 
 51.94         23 
 51.96         31 
 51.98         25 
 52            28 
 52.02         31 
 52.04         28 
 52.06         17 
 52.08         21 
 52.1          15 
 52.12         26 
 52.14         21 
 52.16         24 
 52.18         23 
 52.2          28 
 52.22         27 
 52.24         22 
 52.26         21 
 52.28         20 
 52.3          23 
 52.32         23 
 52.34         29 
 52.36         22 
 52.38         23 
 52.4          19 
 52.42         25 
 52.44         27 
 52.46         26 
 52.48         27 
 52.5          23 
 52.52         28 
 52.54         21 
 52.56         28 
 52.58         24 
 52.6          22 
 52.62         25 
 52.64         16 
 52.66         15 
 52.68         23 
 52.7          28 
 52.72         24 
 52.74         29 
 52.76         28 
 52.78         21 
 52.8          15 
 52.82         22 
 52.84         28 
 52.86         22 
 52.88         24 
 52.9          16 
 52.92         25 
 52.94         24 
 52.96         17 
 52.98         33 
 53            17 
 53.02         29 
 53.04         28 
 53.06         32 
 53.08         20 
 53.1          18 
 53.12         21 
 53.14         21 
 53.16         25 
 53.18         24 
 53.2          33 
 53.22         18 
 53.24         30 
 53.26         26 
 53.28         20 
 53.3          20 
 53.32         20 
 53.34         25 
 53.36         22 
 53.38         28 
 53.4          18 
 53.42         19 
 53.44         10 
 53.46         24 
 53.48         22 
 53.5          17 
 53.52         25 
 53.54         17 
 53.56         25 
 53.58         10 
 53.6          22 
 53.62         34 
 53.64         21 
 53.66         19 
 53.68         24 
 53.7          33 
 53.72         30 
 53.74         25 
 53.76         31 
 53.78         24 
 53.8          28 
 53.82         24 
 53.84         28 
 53.86         19 
 53.88         35 
 53.9          26 
 53.92         20 
 53.94         23 
 53.96         14 
 53.98         19 
 54            25 
 54.02         19 
 54.04         24 
 54.06         19 
 54.08         24 
 54.1          18 
 54.12         22 
 54.14         25 
 54.16         26 
 54.18         10 
 54.2          19 
 54.22         17 
 54.24         17 
 54.26         25 
 54.28         24 
 54.3          20 
 54.32         21 
 54.34         21 
 54.36         33 
 54.38         23 
 54.4          33 
 54.42         21 
 54.44         16 
 54.46         22 
 54.48         33 
 54.5          17 
 54.52         25 
 54.54         26 
 54.56         22 
 54.58         27 
 54.6          19 
 54.62         25 
 54.64         32 
 54.66         22 
 54.68         21 
 54.7          22 
 54.72         27 
 54.74         29 
 54.76         18 
 54.78         17 
 54.8          18 
 54.82         30 
 54.84         19 
 54.86         30 
 54.88         27 
 54.9          26 
 54.92         23 
 54.94         18 
 54.96         27 
 54.98         25 
 55            25 
 55.02         24 
 55.04         30 
 55.06         14 
 55.08         20 
 55.1          17 
 55.12         28 
 55.14         22 
 55.16         26 
 55.18         24 
 55.2          25 
 55.22         25 
 55.24         21 
 55.26         35 
 55.28         31 
 55.3          23 
 55.32         21 
 55.34         23 
 55.36         19 
 55.38         27 
 55.4          28 
 55.42         31 
 55.44         17 
 55.46         21 
 55.48         31 
 55.5          21 
 55.52         24 
 55.54         26 
 55.56         23 
 55.58         17 
 55.6          16 
 55.62         31 
 55.64         31 
 55.66         20 
 55.68         23 
 55.7          21 
 55.72         31 
 55.74         32 
 55.76         28 
 55.78         21 
 55.8          16 
 55.82         18 
 55.84         27 
 55.86         19 
 55.88         30 
 55.9          21 
 55.92         28 
 55.94         29 
 55.96         26 
 55.98         29 
 56            17 
 56.02         30 
 56.04         23 
 56.06         32 
 56.08         34 
 56.1          27 
 56.12         25 
 56.14         29 
 56.16         40 
 56.18         33 
 56.2          34 
 56.22         28 
 56.24         27 
 56.26         30 
 56.28         27 
 56.3          23 
 56.32         29 
 56.34         25 
 56.36         35 
 56.38         25 
 56.4          42 
 56.42         35 
 56.44         32 
 56.46         31 
 56.48         32 
 56.5          35 
 56.52         34 
 56.54         35 
 56.56         28 
 56.58         46 
 56.6          38 
 56.62         40 
 56.64         46 
 56.66         43 
 56.68         30 
 56.7          47 
 56.72         41 
 56.74         34 
 56.76         43 
 56.78         46 
 56.8          55 
 56.82         55 
 56.84         74 
 56.86         65 
 56.88         86 
 56.9          76 
 56.92         74 
 56.94         72 
 56.96         92 
 56.98         97 
 57            105 
 57.02         120 
 57.04         115 
 57.06         126 
 57.08         182 
 57.1          181 
 57.12         227 
 57.14         321 
 57.16         476 
 57.18         566 
 57.2          786 
 57.22         878 
 57.24         1026 
 57.26         964 
 57.28         900 
 57.3          747 
 57.32         645 
 57.34         546 
 57.36         548 
 57.38         543 
 57.4          508 
 57.42         481 
 57.44         420 
 57.46         334 
 57.48         218 
 57.5          143 
 57.52         122 
 57.54         95 
 57.56         91 
 57.58         66 
 57.6          44 
 57.62         52 
 57.64         48 
 57.66         49 
 57.68         56 
 57.7          54 
 57.72         39 
 57.74         43 
 57.76         32 
 57.78         37 
 57.8          45 
 57.82         38 
 57.84         40 
 57.86         38 
 57.88         36 
 57.9          38 
 57.92         38 
 57.94         28 
 57.96         29 
 57.98         28 
 58            28 
 58.02         24 
 58.04         44 
 58.06         31 
 58.08         24 
 58.1          23 
 58.12         28 
 58.14         36 
 58.16         31 
 58.18         27 
 58.2          28 
 58.22         27 
 58.24         31 
 58.26         31 
 58.28         26 
 58.3          32 
 58.32         16 
 58.34         29 
 58.36         29 
 58.38         28 
 58.4          22 
 58.42         28 
 58.44         22 
 58.46         28 
 58.48         26 
 58.5          23 
 58.52         30 
 58.54         25 
 58.56         33 
 58.58         28 
 58.6          29 
 58.62         24 
 58.64         28 
 58.66         31 
 58.68         25 
 58.7          26 
 58.72         15 
 58.74         32 
 58.76         19 
 58.78         30 
 58.8          32 
 58.82         20 
 58.84         25 
 58.86         30 
 58.88         34 
 58.9          25 
 58.92         23 
 58.94         12 
 58.96         29 
 58.98         34 
 59            27 
 59.02         24 
 59.04         30 
 59.06         23 
 59.08         23 
 59.1          22 
 59.12         21 
 59.14         30 
 59.16         30 
 59.18         34 
 59.2          32 
 59.22         24 
 59.24         23 
 59.26         36 
 59.28         27 
 59.3          29 
 59.32         20 
 59.34         22 
 59.36         27 
 59.38         20 
 59.4          34 
 59.42         26 
 59.44         23 
 59.46         21 
 59.48         33 
 59.5          35 
 59.52         23 
 59.54         20 
 59.56         25 
 59.58         21 
 59.6          28 
 59.62         17 
 59.64         24 
 59.66         23 
 59.68         31 
 59.7          16 
 59.72         24 
 59.74         24 
 59.76         26 
 59.78         41 
 59.8          26 
 59.82         32 
 59.84         32 
 59.86         17 
 59.88         25 
 59.9          31 
 59.92         32 
 59.94         28 
 59.96         27 
 59.98         30 
 60            33 
 60.02         31 
 60.04         19 
 60.06         26 
 60.08         33 
 60.1          25 
 60.12         21 
 60.14         22 
 60.16         31 
 60.18         20 
 60.2          19 
 60.22         33 
 60.24         26 
 60.26         21 
 60.28         28 
 60.3          19 
 60.32         29 
 60.34         23 
 60.36         38 
 60.38         29 
 60.4          21 
 60.42         24 
 60.44         19 
 60.46         30 
 60.48         23 
 60.5          24 
 60.52         22 
 60.54         22 
 60.56         24 
 60.58         37 
 60.6          24 
 60.62         27 
 60.64         28 
 60.66         25 
 60.68         28 
 60.7          32 
 60.72         23 
 60.74         27 
 60.76         29 
 60.78         23 
 60.8          31 
 60.82         20 
 60.84         33 
 60.86         30 
 60.88         26 
 60.9          22 
 60.92         26 
 60.94         27 
 60.96         28 
 60.98         28 
 61            29 
 61.02         28 
 61.04         22 
 61.06         23 
 61.08         34 
 61.1          24 
 61.12         28 
 61.14         21 
 61.16         26 
 61.18         30 
 61.2          31 
 61.22         31 
 61.24         24 
 61.26         34 
 61.28         31 
 61.3          30 
 61.32         22 
 61.34         27 
 61.36         34 
 61.38         25 
 61.4          24 
 61.42         30 
 61.44         29 
 61.46         32 
 61.48         35 
 61.5          32 
 61.52         22 
 61.54         35 
 61.56         29 
 61.58         30 
 61.6          25 
 61.62         27 
 61.64         24 
 61.66         24 
 61.68         24 
 61.7          42 
 61.72         24 
 61.74         31 
 61.76         33 
 61.78         27 
 61.8          30 
 61.82         37 
 61.84         35 
 61.86         23 
 61.88         29 
 61.9          36 
 61.92         47 
 61.94         47 
 61.96         37 
 61.98         41 
 62            52 
 62.02         28 
 62.04         33 
 62.06         46 
 62.08         43 
 62.1          33 
 62.12         44 
 62.14         39 
 62.16         38 
 62.18         50 
 62.2          53 
 62.22         45 
 62.24         51 
 62.26         56 
 62.28         54 
 62.3          53 
 62.32         51 
 62.34         57 
 62.36         71 
 62.38         68 
 62.4          72 
 62.42         69 
 62.44         86 
 62.46         74 
 62.48         80 
 62.5          92 
 62.52         107 
 62.54         107 
 62.56         126 
 62.58         128 
 62.6          151 
 62.62         161 
 62.64         142 
 62.66         179 
 62.68         202 
 62.7          252 
 62.72         304 
 62.74         383 
 62.76         492 
 62.78         720 
 62.8          999 
 62.82         1257 
 62.84         1570 
 62.86         1715 
 62.88         1678 
 62.9          1579 
 62.92         1298 
 62.94         970 
 62.96         835 
 62.98         863 
 63            943 
 63.02         948 
 63.04         937 
 63.06         855 
 63.08         693 
 63.1          473 
 63.12         367 
 63.14         240 
 63.16         162 
 63.18         161 
 63.2          137 
 63.22         105 
 63.24         113 
 63.26         90 
 63.28         89 
 63.3          87 
 63.32         86 
 63.34         83 
 63.36         73 
 63.38         99 
 63.4          88 
 63.42         75 
 63.44         59 
 63.46         66 
 63.48         80 
 63.5          57 
 63.52         63 
 63.54         92 
 63.56         64 
 63.58         77 
 63.6          63 
 63.62         68 
 63.64         56 
 63.66         61 
 63.68         54 
 63.7          55 
 63.72         49 
 63.74         44 
 63.76         55 
 63.78         39 
 63.8          35 
 63.82         34 
 63.84         38 
 63.86         39 
 63.88         37 
 63.9          42 
 63.92         22 
 63.94         30 
 63.96         30 
 63.98         33 
 64            23 
 64.02         28 
 64.04         32 
 64.06         33 
 64.08         27 
 64.1          36 
 64.12         31 
 64.14         25 
 64.16         25 
 64.18         24 
 64.2          35 
 64.22         34 
 64.24         26 
 64.26         33 
 64.28         43 
 64.3          35 
 64.32         25 
 64.34         39 
 64.36         27 
 64.38         19 
 64.4          35 
 64.42         28 
 64.44         31 
 64.46         21 
 64.48         31 
 64.5          33 
 64.52         26 
 64.54         28 
 64.56         25 
 64.58         27 
 64.6          22 
 64.62         23 
 64.64         25 
 64.66         20 
 64.68         29 
 64.7          40 
 64.72         28 
 64.74         22 
 64.76         34 
 64.78         37 
 64.8          29 
 64.82         31 
 64.84         39 
 64.86         17 
 64.88         33 
 64.9          16 
 64.92         40 
 64.94         30 
 64.96         26 
 64.98         36 
 65            28 
 65.02         25 
 65.04         24 
 65.06         35 
 65.08         26 
 65.1          25 
 65.12         25 
 65.14         25 
 65.16         34 
 65.18         22 
 65.2          24 
 65.22         30 
 65.24         31 
 65.26         29 
 65.28         27 
 65.3          35 
 65.32         20 
 65.34         26 
 65.36         34 
 65.38         33 
 65.4          28 
 65.42         29 
 65.44         26 
 65.46         38 
 65.48         39 
 65.5          44 
 65.52         30 
 65.54         38 
 65.56         36 
 65.58         39 
 65.6          46 
 65.62         44 
 65.64         35 
 65.66         42 
 65.68         43 
 65.7          53 
 65.72         36 
 65.74         55 
 65.76         54 
 65.78         59 
 65.8          51 
 65.82         62 
 65.84         47 
 65.86         68 
 65.88         78 
 65.9          78 
 65.92         96 
 65.94         104 
 65.96         130 
 65.98         181 
 66            213 
 66.02         284 
 66.04         384 
 66.06         501 
 66.08         562 
 66.1          603 
 66.12         566 
 66.14         541 
 66.16         418 
 66.18         350 
 66.2          298 
 66.22         290 
 66.24         321 
 66.26         321 
 66.28         354 
 66.3          323 
 66.32         296 
 66.34         218 
 66.36         169 
 66.38         105 
 66.4          88 
 66.42         73 
 66.44         61 
 66.46         53 
 66.48         47 
 66.5          50 
 66.52         49 
 66.54         54 
 66.56         32 
 66.58         36 
 66.6          53 
 66.62         31 
 66.64         36 
 66.66         39 
 66.68         45 
 66.7          39 
 66.72         40 
 66.74         50 
 66.76         31 
 66.78         29 
 66.8          33 
 66.82         40 
 66.84         43 
 66.86         29 
 66.88         31 
 66.9          25 
 66.92         26 
 66.94         27 
 66.96         30 
 66.98         17 
 67            31 
 67.02         25 
 67.04         25 
 67.06         29 
 67.08         27 
 67.1          24 
 67.12         28 
 67.14         37 
 67.16         35 
 67.18         26 
 67.2          30 
 67.22         29 
 67.24         26 
 67.26         29 
 67.28         26 
 67.3          18 
 67.32         31 
 67.34         28 
 67.36         20 
 67.38         18 
 67.4          25 
 67.42         21 
 67.44         29 
 67.46         25 
 67.48         34 
 67.5          25 
 67.52         26 
 67.54         21 
 67.56         21 
 67.58         19 
 67.6          25 
 67.62         27 
 67.64         20 
 67.66         20 
 67.68         24 
 67.7          16 
 67.72         25 
 67.74         24 
 67.76         25 
 67.78         34 
 67.8          22 
 67.82         24 
 67.84         15 
 67.86         20 
 67.88         32 
 67.9          22 
 67.92         17 
 67.94         25 
 67.96         28 
 67.98         22 
 68            30 
 68.02         17 
 68.04         24 
 68.06         22 
 68.08         18 
 68.1          18 
 68.12         23 
 68.14         15 
 68.16         21 
 68.18         26 
 68.2          20 
 68.22         20 
 68.24         21 
 68.26         22 
 68.28         14 
 68.3          16 
 68.32         29 
 68.34         25 
 68.36         16 
 68.38         19 
 68.4          22 
 68.42         17 
 68.44         11 
 68.46         17 
 68.48         11 
 68.5          22 
 68.52         26 
 68.54         26 
 68.56         24 
 68.58         24 
 68.6          24 
 68.62         20 
 68.64         23 
 68.66         27 
 68.68         18 
 68.7          15 
 68.72         25 
 68.74         29 
 68.76         20 
 68.78         10 
 68.8          31 
 68.82         19 
 68.84         30 
 68.86         24 
 68.88         22 
 68.9          23 
 68.92         16 
 68.94         21 
 68.96         25 
 68.98         15 
 69            31 
 69.02         21 
 69.04         20 
 69.06         20 
 69.08         16 
 69.1          25 
 69.12         10 
 69.14         19 
 69.16         12 
 69.18         13 
 69.2          17 
 69.22         15 
 69.24         27 
 69.26         29 
 69.28         13 
 69.3          24 
 69.32         22 
 69.34         23 
 69.36         21 
 69.38         26 
 69.4          16 
 69.42         20 
 69.44         20 
 69.46         26 
 69.48         25 
 69.5          12 
 69.52         19 
 69.54         18 
 69.56         20 
 69.58         12 
 69.6          22 
 69.62         16 
 69.64         11 
 69.66         18 
 69.68         28 
 69.7          14 
 69.72         26 
 69.74         29 
 69.76         18 
 69.78         21 
 69.8          24 
 69.82         19 
 69.84         19 
 69.86         15 
 69.88         20 
 69.9          25 
 69.92         22 
 69.94         20 
 69.96         23 
 69.98         14 
 70            22 
 70.02         17 
 70.04         17 
 70.06         29 
 70.08         20 
 70.1          19 
 70.12         20 
 70.14         14 
 70.16         23 
 70.18         16 
 70.2          27 
 70.22         21 
 70.24         17 
 70.26         27 
 70.28         14 
 70.3          21 
 70.32         15 
 70.34         16 
 70.36         12 
 70.38         15 
 70.4          19 
 70.42         31 
 70.44         17 
 70.46         20 
 70.48         24 
 70.5          21 
 70.52         19 
 70.54         15 
 70.56         18 
 70.58         24 
 70.6          21 
 70.62         15 
 70.64         26 
 70.66         19 
 70.68         22 
 70.7          17 
 70.72         10 
 70.74         23 
 70.76         20 
 70.78         17 
 70.8          21 
 70.82         16 
 70.84         11 
 70.86         24 
 70.88         17 
 70.9          16 
 70.92         22 
 70.94         19 
 70.96         20 
 70.98         20 
 71            17 
 71.02         26 
 71.04         15 
 71.06         18 
 71.08         18 
 71.1          22 
 71.12         21 
 71.14         19 
 71.16         17 
 71.18         20 
 71.2          23 
 71.22         25 
 71.24         24 
 71.26         12 
 71.28         28 
 71.3          19 
 71.32         16 
 71.34         19 
 71.36         16 
 71.38         23 
 71.4          15 
 71.42         16 
 71.44         14 
 71.46         17 
 71.48         25 
 71.5          10 
 71.52         18 
 71.54         23 
 71.56         25 
 71.58         20 
 71.6          17 
 71.62         13 
 71.64         15 
 71.66         18 
 71.68         17 
 71.7          16 
 71.72         21 
 71.74         24 
 71.76         18 
 71.78         22 
 71.8          18 
 71.82         22 
 71.84         15 
 71.86         15 
 71.88         15 
 71.9          20 
 71.92         14 
 71.94         13 
 71.96         28 
 71.98         14 
 72            22 
 72.02         13 
 72.04         24 
 72.06         21 
 72.08         20 
 72.1          25 
 72.12         25 
 72.14         18 
 72.16         16 
 72.18         20 
 72.2          17 
 72.22         13 
 72.24         18 
 72.26         15 
 72.28         18 
 72.3          20 
 72.32         21 
 72.34         19 
 72.36         21 
 72.38         22 
 72.4          19 
 72.42         12 
 72.44         18 
 72.46         16 
 72.48         24 
 72.5          28 
 72.52         23 
 72.54         11 
 72.56         23 
 72.58         20 
 72.6          20 
 72.62         17 
 72.64         22 
 72.66         20 
 72.68         16 
 72.7          16 
 72.72         15 
 72.74         15 
 72.76         20 
 72.78         16 
 72.8          18 
 72.82         19 
 72.84         21 
 72.86         19 
 72.88         17 
 72.9          19 
 72.92         18 
 72.94         22 
 72.96         15 
 72.98         12 
 73            25 
 73.02         16 
 73.04         22 
 73.06         26 
 73.08         18 
 73.1          20 
 73.12         10 
 73.14         27 
 73.16         17 
 73.18         22 
 73.2          18 
 73.22         21 
 73.24         18 
 73.26         20 
 73.28         19 
 73.3          20 
 73.32         19 
 73.34         26 
 73.36         15 
 73.38         22 
 73.4          24 
 73.42         22 
 73.44         21 
 73.46         28 
 73.48         22 
 73.5          22 
 73.52         19 
 73.54         23 
 73.56         28 
 73.58         20 
 73.6          23 
 73.62         20 
 73.64         25 
 73.66         21 
 73.68         25 
 73.7          18 
 73.72         16 
 73.74         23 
 73.76         22 
 73.78         22 
 73.8          18 
 73.82         18 
 73.84         16 
 73.86         23 
 73.88         17 
 73.9          21 
 73.92         25 
 73.93999      27 
 73.96         27 
 73.98         22 
 74            31 
 74.02         21 
 74.04         22 
 74.06         37 
 74.08         25 
 74.1          31 
 74.12         32 
 74.14         40 
 74.16         49 
 74.18         42 
 74.2          33 
 74.22         24 
 74.24         49 
 74.26         60 
 74.28         89 
 74.3          106 
 74.32         129 
 74.34         161 
 74.36         171 
 74.38         205 
 74.4          208 
 74.42         190 
 74.43999      137 
 74.46         118 
 74.48         102 
 74.5          91 
 74.52         93 
 74.54         95 
 74.56         94 
 74.58         114 
 74.6          139 
 74.62         111 
 74.64         94 
 74.66         69 
 74.68         64 
 74.7          40 
 74.72         40 
 74.74         27 
 74.76         33 
 74.78         34 
 74.8          25 
 74.82         25 
 74.84         21 
 74.86         25 
 74.88         28 
 74.9          25 
 74.92         38 
 74.93999      28 
 74.96         29 
 74.98         28 
 75            25 
