LTO P2 800 12h  Original Data
 3151 
 12            251 
 12.02         241 
 12.04         261 
 12.06         245 
 12.08         259 
 12.1          265 
 12.12         244 
 12.14         283 
 12.16         281 
 12.18         275 
 12.2          260 
 12.22         322 
 12.24         270 
 12.26         274 
 12.28         250 
 12.3          279 
 12.32         268 
 12.34         271 
 12.36         282 
 12.38         281 
 12.4          265 
 12.42         271 
 12.44         257 
 12.46         280 
 12.48         288 
 12.5          261 
 12.52         274 
 12.54         259 
 12.56         285 
 12.58         250 
 12.6          266 
 12.62         273 
 12.64         276 
 12.66         257 
 12.68         289 
 12.7          286 
 12.72         257 
 12.74         258 
 12.76         256 
 12.78         306 
 12.8          234 
 12.82         274 
 12.84         246 
 12.86         261 
 12.88         303 
 12.9          267 
 12.92         250 
 12.94         227 
 12.96         245 
 12.98         269 
 13            251 
 13.02         231 
 13.04         242 
 13.06         246 
 13.08         273 
 13.1          230 
 13.12         261 
 13.14         242 
 13.16         231 
 13.18         224 
 13.2          261 
 13.22         243 
 13.24         266 
 13.26         247 
 13.28         231 
 13.3          231 
 13.32         224 
 13.34         258 
 13.36         255 
 13.38         253 
 13.4          226 
 13.42         246 
 13.44         246 
 13.46         235 
 13.48         259 
 13.5          239 
 13.52         218 
 13.54         236 
 13.56         221 
 13.58         211 
 13.6          196 
 13.62         227 
 13.64         248 
 13.66         236 
 13.68         234 
 13.7          229 
 13.72         257 
 13.74         220 
 13.76         222 
 13.78         211 
 13.8          236 
 13.82         219 
 13.84         228 
 13.86         245 
 13.88         215 
 13.9          232 
 13.92         219 
 13.94         220 
 13.96         218 
 13.98         199 
 14            180 
 14.02         214 
 14.04         206 
 14.06         228 
 14.08         225 
 14.1          232 
 14.12         199 
 14.14         204 
 14.16         211 
 14.18         202 
 14.2          199 
 14.22         209 
 14.24         212 
 14.26         208 
 14.28         225 
 14.3          212 
 14.32         197 
 14.34         201 
 14.36         214 
 14.38         189 
 14.4          217 
 14.42         194 
 14.44         194 
 14.46         227 
 14.48         194 
 14.5          192 
 14.52         190 
 14.54         192 
 14.56         226 
 14.58         197 
 14.6          194 
 14.62         196 
 14.64         194 
 14.66         186 
 14.68         177 
 14.7          180 
 14.72         175 
 14.74         193 
 14.76         179 
 14.78         194 
 14.8          196 
 14.82         169 
 14.84         173 
 14.86         176 
 14.88         161 
 14.9          187 
 14.92         185 
 14.94         186 
 14.96         180 
 14.98         183 
 15            167 
 15.02         175 
 15.04         170 
 15.06         159 
 15.08         172 
 15.1          183 
 15.12         155 
 15.14         172 
 15.16         162 
 15.18         167 
 15.2          189 
 15.22         161 
 15.24         152 
 15.26         183 
 15.28         167 
 15.3          174 
 15.32         184 
 15.34         148 
 15.36         178 
 15.38         182 
 15.4          177 
 15.42         169 
 15.44         165 
 15.46         159 
 15.48         173 
 15.5          176 
 15.52         156 
 15.54         147 
 15.56         139 
 15.58         153 
 15.6          170 
 15.62         172 
 15.64         144 
 15.66         171 
 15.68         154 
 15.7          160 
 15.72         154 
 15.74         155 
 15.76         132 
 15.78         165 
 15.8          157 
 15.82         172 
 15.84         165 
 15.86         161 
 15.88         140 
 15.9          149 
 15.92         168 
 15.94         150 
 15.96         143 
 15.98         147 
 16            148 
 16.02         153 
 16.04         138 
 16.06         142 
 16.08         143 
 16.1          151 
 16.12         160 
 16.14         145 
 16.16         154 
 16.18         148 
 16.2          161 
 16.22         151 
 16.24         156 
 16.26         141 
 16.28         151 
 16.3          136 
 16.32         138 
 16.34         139 
 16.36         141 
 16.38         138 
 16.4          139 
 16.42         186 
 16.44         149 
 16.46         150 
 16.48         157 
 16.5          152 
 16.52         150 
 16.54         142 
 16.56         133 
 16.58         133 
 16.6          150 
 16.62         141 
 16.64         155 
 16.66         141 
 16.68         131 
 16.7          152 
 16.72         158 
 16.74         135 
 16.76         127 
 16.78         157 
 16.8          143 
 16.82         138 
 16.84         140 
 16.86         146 
 16.88         152 
 16.9          137 
 16.92         140 
 16.94         170 
 16.96         127 
 16.98         154 
 17            162 
 17.02         151 
 17.04         136 
 17.06         141 
 17.08         169 
 17.1          150 
 17.12         136 
 17.14         135 
 17.16         150 
 17.18         132 
 17.2          137 
 17.22         117 
 17.24         132 
 17.26         144 
 17.28         146 
 17.3          128 
 17.32         156 
 17.34         140 
 17.36         146 
 17.38         151 
 17.4          145 
 17.42         149 
 17.44         136 
 17.46         145 
 17.48         151 
 17.5          132 
 17.52         153 
 17.54         145 
 17.56         156 
 17.58         175 
 17.6          163 
 17.62         171 
 17.64         176 
 17.66         177 
 17.68         179 
 17.7          181 
 17.72         166 
 17.74         187 
 17.76         214 
 17.78         212 
 17.8          286 
 17.82         236 
 17.84         239 
 17.86         315 
 17.88         363 
 17.9          381 
 17.92         469 
 17.94         513 
 17.96         586 
 17.98         686 
 18            714 
 18.02         763 
 18.04         951 
 18.06         1129 
 18.08         1360 
 18.1          1484 
 18.12         1746 
 18.14         2090 
 18.16         2409 
 18.18         2883 
 18.2          3522 
 18.22         4261 
 18.24         5154 
 18.26         6249 
 18.28         7663 
 18.3          9381 
 18.32         10958 
 18.34         12204 
 18.36         12390 
 18.38         11348 
 18.4          9330 
 18.42         6502 
 18.44         4236 
 18.46         2410 
 18.48         1499 
 18.5          918 
 18.52         691 
 18.54         551 
 18.56         448 
 18.58         381 
 18.6          353 
 18.62         319 
 18.64         290 
 18.66         239 
 18.68         217 
 18.7          227 
 18.72         180 
 18.74         216 
 18.76         200 
 18.78         178 
 18.8          190 
 18.82         161 
 18.84         180 
 18.86         156 
 18.88         163 
 18.9          159 
 18.92         159 
 18.94         165 
 18.96         154 
 18.98         143 
 19            134 
 19.02         148 
 19.04         138 
 19.06         148 
 19.08         131 
 19.1          133 
 19.12         134 
 19.14         137 
 19.16         125 
 19.18         122 
 19.2          135 
 19.22         132 
 19.24         126 
 19.26         164 
 19.28         134 
 19.3          142 
 19.32         122 
 19.34         137 
 19.36         134 
 19.38         139 
 19.4          121 
 19.42         137 
 19.44         137 
 19.46         121 
 19.48         142 
 19.5          134 
 19.52         114 
 19.54         132 
 19.56         134 
 19.58         136 
 19.6          130 
 19.62         133 
 19.64         129 
 19.66         117 
 19.68         134 
 19.7          134 
 19.72         123 
 19.74         141 
 19.76         133 
 19.78         136 
 19.8          124 
 19.82         143 
 19.84         127 
 19.86         128 
 19.88         139 
 19.9          107 
 19.92         137 
 19.94         132 
 19.96         124 
 19.98         120 
 20            122 
 20.02         124 
 20.04         133 
 20.06         140 
 20.08         123 
 20.1          119 
 20.12         136 
 20.14         128 
 20.16         138 
 20.18         139 
 20.2          127 
 20.22         139 
 20.24         128 
 20.26         139 
 20.28         124 
 20.3          132 
 20.32         118 
 20.34         148 
 20.36         119 
 20.38         118 
 20.4          141 
 20.42         136 
 20.44         129 
 20.46         132 
 20.48         128 
 20.5          126 
 20.52         125 
 20.54         119 
 20.56         126 
 20.58         117 
 20.6          119 
 20.62         144 
 20.64         126 
 20.66         118 
 20.68         116 
 20.7          124 
 20.72         133 
 20.74         142 
 20.76         132 
 20.78         128 
 20.8          119 
 20.82         122 
 20.84         121 
 20.86         112 
 20.88         122 
 20.9          126 
 20.92         124 
 20.94         130 
 20.96         122 
 20.98         116 
 21            121 
 21.02         126 
 21.04         123 
 21.06         116 
 21.08         119 
 21.1          118 
 21.12         122 
 21.14         138 
 21.16         112 
 21.18         130 
 21.2          135 
 21.22         115 
 21.24         109 
 21.26         149 
 21.28         109 
 21.3          143 
 21.32         120 
 21.34         135 
 21.36         125 
 21.38         122 
 21.4          138 
 21.42         132 
 21.44         108 
 21.46         114 
 21.48         104 
 21.5          127 
 21.52         140 
 21.54         113 
 21.56         141 
 21.58         136 
 21.6          104 
 21.62         131 
 21.64         132 
 21.66         135 
 21.68         123 
 21.7          145 
 21.72         108 
 21.74         123 
 21.76         118 
 21.78         114 
 21.8          115 
 21.82         123 
 21.84         144 
 21.86         124 
 21.88         117 
 21.9          117 
 21.92         106 
 21.94         130 
 21.96         128 
 21.98         115 
 22            107 
 22.02         131 
 22.04         126 
 22.06         123 
 22.08         136 
 22.1          119 
 22.12         121 
 22.14         130 
 22.16         113 
 22.18         123 
 22.2          122 
 22.22         118 
 22.24         128 
 22.26         116 
 22.28         104 
 22.3          123 
 22.32         133 
 22.34         134 
 22.36         116 
 22.38         120 
 22.4          127 
 22.42         119 
 22.44         124 
 22.46         109 
 22.48         121 
 22.5          139 
 22.52         129 
 22.54         125 
 22.56         107 
 22.58         123 
 22.6          121 
 22.62         122 
 22.64         135 
 22.66         125 
 22.68         120 
 22.7          98 
 22.72         136 
 22.74         107 
 22.76         128 
 22.78         125 
 22.8          130 
 22.82         131 
 22.84         125 
 22.86         114 
 22.88         129 
 22.9          129 
 22.92         120 
 22.94         124 
 22.96         123 
 22.98         115 
 23            110 
 23.02         129 
 23.04         103 
 23.06         124 
 23.08         124 
 23.1          115 
 23.12         129 
 23.14         119 
 23.16         122 
 23.18         138 
 23.2          122 
 23.22         108 
 23.24         140 
 23.26         136 
 23.28         128 
 23.3          130 
 23.32         105 
 23.34         138 
 23.36         129 
 23.38         131 
 23.4          126 
 23.42         120 
 23.44         129 
 23.46         138 
 23.48         120 
 23.5          121 
 23.52         143 
 23.54         138 
 23.56         103 
 23.58         118 
 23.6          128 
 23.62         107 
 23.64         117 
 23.66         143 
 23.68         121 
 23.7          141 
 23.72         117 
 23.74         133 
 23.76         113 
 23.78         124 
 23.8          132 
 23.82         134 
 23.84         108 
 23.86         121 
 23.88         112 
 23.9          104 
 23.92         123 
 23.94         129 
 23.96         125 
 23.98         123 
 24            123 
 24.02         130 
 24.04         117 
 24.06         133 
 24.08         107 
 24.1          118 
 24.12         124 
 24.14         110 
 24.16         114 
 24.18         130 
 24.2          145 
 24.22         112 
 24.24         133 
 24.26         133 
 24.28         134 
 24.3          124 
 24.32         102 
 24.34         127 
 24.36         146 
 24.38         120 
 24.4          132 
 24.42         127 
 24.44         125 
 24.46         136 
 24.48         130 
 24.5          115 
 24.52         125 
 24.54         123 
 24.56         134 
 24.58         106 
 24.6          119 
 24.62         107 
 24.64         132 
 24.66         96 
 24.68         123 
 24.7          126 
 24.72         122 
 24.74         112 
 24.76         139 
 24.78         115 
 24.8          118 
 24.82         133 
 24.84         117 
 24.86         124 
 24.88         108 
 24.9          127 
 24.92         111 
 24.94         117 
 24.96         104 
 24.98         106 
 25            126 
 25.02         118 
 25.04         128 
 25.06         130 
 25.08         107 
 25.1          126 
 25.12         125 
 25.14         112 
 25.16         108 
 25.18         110 
 25.2          118 
 25.22         117 
 25.24         113 
 25.26         141 
 25.28         117 
 25.3          112 
 25.32         103 
 25.34         122 
 25.36         120 
 25.38         111 
 25.4          127 
 25.42         136 
 25.44         119 
 25.46         106 
 25.48         103 
 25.5          90 
 25.52         118 
 25.54         128 
 25.56         129 
 25.58         116 
 25.6          113 
 25.62         113 
 25.64         145 
 25.66         109 
 25.68         134 
 25.7          105 
 25.72         125 
 25.74         120 
 25.76         118 
 25.78         133 
 25.8          111 
 25.82         120 
 25.84         129 
 25.86         119 
 25.88         101 
 25.9          115 
 25.92         119 
 25.94         116 
 25.96         124 
 25.98         110 
 26            118 
 26.02         132 
 26.04         116 
 26.06         118 
 26.08         128 
 26.1          133 
 26.12         104 
 26.14         97 
 26.16         119 
 26.18         118 
 26.2          140 
 26.22         107 
 26.24         138 
 26.26         109 
 26.28         113 
 26.3          124 
 26.32         106 
 26.34         114 
 26.36         128 
 26.38         118 
 26.4          111 
 26.42         114 
 26.44         96 
 26.46         111 
 26.48         110 
 26.5          100 
 26.52         132 
 26.54         119 
 26.56         113 
 26.58         117 
 26.6          114 
 26.62         145 
 26.64         111 
 26.66         101 
 26.68         109 
 26.7          126 
 26.72         117 
 26.74         155 
 26.76         124 
 26.78         90 
 26.8          112 
 26.82         126 
 26.84         110 
 26.86         117 
 26.88         123 
 26.9          103 
 26.92         135 
 26.94         115 
 26.96         120 
 26.98         119 
 27            100 
 27.02         121 
 27.04         117 
 27.06         111 
 27.08         122 
 27.1          107 
 27.12         136 
 27.14         110 
 27.16         119 
 27.18         130 
 27.2          126 
 27.22         138 
 27.24         133 
 27.26         142 
 27.28         138 
 27.3          165 
 27.32         168 
 27.34         194 
 27.36         223 
 27.38         231 
 27.4          332 
 27.42         305 
 27.44         322 
 27.46         304 
 27.48         290 
 27.5          235 
 27.52         228 
 27.54         165 
 27.56         165 
 27.58         140 
 27.6          135 
 27.62         118 
 27.64         93 
 27.66         120 
 27.68         106 
 27.7          117 
 27.72         89 
 27.74         126 
 27.76         105 
 27.78         118 
 27.8          117 
 27.82         108 
 27.84         122 
 27.86         111 
 27.88         101 
 27.9          84 
 27.92         119 
 27.94         123 
 27.96         113 
 27.98         111 
 28            106 
 28.02         116 
 28.04         92 
 28.06         96 
 28.08         104 
 28.1          118 
 28.12         115 
 28.14         114 
 28.16         94 
 28.18         102 
 28.2          109 
 28.22         69 
 28.24         104 
 28.26         122 
 28.28         112 
 28.3          102 
 28.32         99 
 28.34         115 
 28.36         131 
 28.38         101 
 28.4          107 
 28.42         105 
 28.44         97 
 28.46         102 
 28.48         92 
 28.5          115 
 28.52         99 
 28.54         110 
 28.56         105 
 28.58         83 
 28.6          101 
 28.62         102 
 28.64         81 
 28.66         93 
 28.68         95 
 28.7          102 
 28.72         91 
 28.74         110 
 28.76         87 
 28.78         111 
 28.8          98 
 28.82         97 
 28.84         102 
 28.86         95 
 28.88         96 
 28.9          112 
 28.92         86 
 28.94         102 
 28.96         80 
 28.98         111 
 29            99 
 29.02         94 
 29.04         100 
 29.06         104 
 29.08         98 
 29.1          98 
 29.12         101 
 29.14         96 
 29.16         95 
 29.18         102 
 29.2          99 
 29.22         95 
 29.24         80 
 29.26         105 
 29.28         101 
 29.3          100 
 29.32         90 
 29.34         107 
 29.36         110 
 29.38         82 
 29.4          91 
 29.42         94 
 29.44         104 
 29.46         91 
 29.48         94 
 29.5          92 
 29.52         84 
 29.54         84 
 29.56         97 
 29.58         83 
 29.6          91 
 29.62         96 
 29.64         91 
 29.66         94 
 29.68         88 
 29.7          101 
 29.72         102 
 29.74         96 
 29.76         98 
 29.78         94 
 29.8          89 
 29.82         96 
 29.84         74 
 29.86         88 
 29.88         110 
 29.9          94 
 29.92         94 
 29.94         99 
 29.96         101 
 29.98         95 
 30            95 
 30.02         117 
 30.04         120 
 30.06         123 
 30.08         110 
 30.1          151 
 30.12         149 
 30.14         156 
 30.16         164 
 30.18         210 
 30.2          205 
 30.22         181 
 30.24         197 
 30.26         192 
 30.28         165 
 30.3          149 
 30.32         129 
 30.34         113 
 30.36         104 
 30.38         110 
 30.4          95 
 30.42         61 
 30.44         95 
 30.46         96 
 30.48         87 
 30.5          91 
 30.52         87 
 30.54         85 
 30.56         81 
 30.58         86 
 30.6          74 
 30.62         97 
 30.64         87 
 30.66         90 
 30.68         99 
 30.7          69 
 30.72         65 
 30.74         84 
 30.76         79 
 30.78         78 
 30.8          81 
 30.82         71 
 30.84         74 
 30.86         83 
 30.88         74 
 30.9          88 
 30.92         68 
 30.94         77 
 30.96         76 
 30.98         67 
 31            99 
 31.02         67 
 31.04         81 
 31.06         82 
 31.08         90 
 31.1          66 
 31.12         79 
 31.14         80 
 31.16         75 
 31.18         73 
 31.2          84 
 31.22         78 
 31.24         82 
 31.26         72 
 31.28         77 
 31.3          91 
 31.32         77 
 31.34         76 
 31.36         73 
 31.38         84 
 31.4          73 
 31.42         73 
 31.44         55 
 31.46         68 
 31.48         72 
 31.5          62 
 31.52         64 
 31.54         74 
 31.56         64 
 31.58         50 
 31.6          70 
 31.62         52 
 31.64         77 
 31.66         58 
 31.68         99 
 31.7          61 
 31.72         74 
 31.74         67 
 31.76         79 
 31.78         64 
 31.8          66 
 31.82         59 
 31.84         69 
 31.86         70 
 31.88         58 
 31.9          71 
 31.92         53 
 31.94         71 
 31.96         74 
 31.98         80 
 32            62 
 32.02         63 
 32.04         72 
 32.06         50 
 32.08         70 
 32.1          66 
 32.12         61 
 32.14         65 
 32.16         68 
 32.18         73 
 32.2          62 
 32.22         59 
 32.24         85 
 32.26         65 
 32.28         63 
 32.3          54 
 32.32         70 
 32.34         76 
 32.36         75 
 32.38         67 
 32.4          64 
 32.42         69 
 32.44         71 
 32.46         59 
 32.48         59 
 32.5          70 
 32.52         63 
 32.54         63 
 32.56         80 
 32.58         78 
 32.6          66 
 32.62         72 
 32.64         60 
 32.66         69 
 32.68         65 
 32.7          75 
 32.72         55 
 32.74         78 
 32.76         58 
 32.78         60 
 32.8          70 
 32.82         79 
 32.84         68 
 32.86         65 
 32.88         72 
 32.9          75 
 32.92         70 
 32.94         60 
 32.96         50 
 32.98         61 
 33            64 
 33.02         67 
 33.04         58 
 33.06         75 
 33.08         69 
 33.1          55 
 33.12         56 
 33.14         48 
 33.16         53 
 33.18         64 
 33.2          58 
 33.22         72 
 33.24         77 
 33.26         65 
 33.28         51 
 33.3          61 
 33.32         70 
 33.34         56 
 33.36         61 
 33.38         61 
 33.4          60 
 33.42         73 
 33.44         55 
 33.46         66 
 33.48         51 
 33.5          52 
 33.52         50 
 33.54         66 
 33.56         68 
 33.58         63 
 33.6          62 
 33.62         53 
 33.64         57 
 33.66         60 
 33.68         68 
 33.7          62 
 33.72         74 
 33.74         52 
 33.76         60 
 33.78         66 
 33.8          64 
 33.82         58 
 33.84         45 
 33.86         73 
 33.88         66 
 33.9          62 
 33.92         60 
 33.94         53 
 33.96         71 
 33.98         70 
 34            62 
 34.02         76 
 34.04         69 
 34.06         48 
 34.08         61 
 34.1          82 
 34.12         69 
 34.14         57 
 34.16         53 
 34.18         56 
 34.2          52 
 34.22         55 
 34.24         61 
 34.26         58 
 34.28         69 
 34.3          64 
 34.32         53 
 34.34         69 
 34.36         59 
 34.38         74 
 34.4          61 
 34.42         60 
 34.44         50 
 34.46         58 
 34.48         61 
 34.5          54 
 34.52         61 
 34.54         63 
 34.56         63 
 34.58         56 
 34.6          64 
 34.62         48 
 34.64         71 
 34.66         57 
 34.68         62 
 34.7          57 
 34.72         61 
 34.74         72 
 34.76         60 
 34.78         69 
 34.8          69 
 34.82         71 
 34.84         79 
 34.86         68 
 34.88         76 
 34.9          68 
 34.92         70 
 34.94         65 
 34.96         74 
 34.98         51 
 35            80 
 35.02         58 
 35.04         81 
 35.06         100 
 35.08         91 
 35.1          85 
 35.12         111 
 35.14         120 
 35.16         105 
 35.18         123 
 35.2          125 
 35.22         158 
 35.24         152 
 35.26         182 
 35.28         208 
 35.3          235 
 35.32         298 
 35.34         309 
 35.36         388 
 35.38         485 
 35.4          581 
 35.42         729 
 35.44         917 
 35.46         1236 
 35.48         1797 
 35.5          2369 
 35.52         3270 
 35.54         4232 
 35.56         4900 
 35.58         5227 
 35.6          5445 
 35.62         4892 
 35.64         4179 
 35.66         3370 
 35.68         2771 
 35.7          2168 
 35.72         1516 
 35.74         957 
 35.76         609 
 35.78         425 
 35.8          306 
 35.82         253 
 35.84         226 
 35.86         184 
 35.88         179 
 35.9          140 
 35.92         153 
 35.94         157 
 35.96         167 
 35.98         141 
 36            150 
 36.02         140 
 36.04         156 
 36.06         165 
 36.08         179 
 36.1          166 
 36.12         147 
 36.14         151 
 36.16         124 
 36.18         131 
 36.2          122 
 36.22         75 
 36.24         84 
 36.26         77 
 36.28         73 
 36.3          68 
 36.32         56 
 36.34         54 
 36.36         61 
 36.38         68 
 36.4          50 
 36.42         66 
 36.44         50 
 36.46         84 
 36.48         52 
 36.5          49 
 36.52         63 
 36.54         61 
 36.56         57 
 36.58         50 
 36.6          50 
 36.62         56 
 36.64         49 
 36.66         58 
 36.68         36 
 36.7          56 
 36.72         37 
 36.74         54 
 36.76         60 
 36.78         52 
 36.8          52 
 36.82         51 
 36.84         65 
 36.86         59 
 36.88         48 
 36.9          79 
 36.92         53 
 36.94         62 
 36.96         55 
 36.98         63 
 37            69 
 37.02         47 
 37.04         68 
 37.06         77 
 37.08         110 
 37.1          98 
 37.12         123 
 37.14         139 
 37.16         184 
 37.18         238 
 37.2          282 
 37.22         273 
 37.24         259 
 37.26         243 
 37.28         223 
 37.3          196 
 37.32         157 
 37.34         134 
 37.36         138 
 37.38         86 
 37.4          75 
 37.42         76 
 37.44         56 
 37.46         58 
 37.48         55 
 37.5          44 
 37.52         52 
 37.54         55 
 37.56         43 
 37.58         39 
 37.6          37 
 37.62         40 
 37.64         55 
 37.66         45 
 37.68         40 
 37.7          28 
 37.72         41 
 37.74         53 
 37.76         44 
 37.78         51 
 37.8          45 
 37.82         49 
 37.84         63 
 37.86         42 
 37.88         47 
 37.9          58 
 37.92         40 
 37.94         38 
 37.96         38 
 37.98         44 
 38            48 
 38.02         46 
 38.04         45 
 38.06         45 
 38.08         50 
 38.1          31 
 38.12         36 
 38.14         36 
 38.16         37 
 38.18         37 
 38.2          50 
 38.22         56 
 38.24         36 
 38.26         46 
 38.28         43 
 38.3          38 
 38.32         51 
 38.34         44 
 38.36         41 
 38.38         56 
 38.4          35 
 38.42         45 
 38.44         47 
 38.46         46 
 38.48         52 
 38.5          48 
 38.52         46 
 38.54         35 
 38.56         43 
 38.58         36 
 38.6          33 
 38.62         48 
 38.64         40 
 38.66         35 
 38.68         38 
 38.7          48 
 38.72         52 
 38.74         51 
 38.76         40 
 38.78         49 
 38.8          45 
 38.82         34 
 38.84         54 
 38.86         49 
 38.88         50 
 38.9          49 
 38.92         49 
 38.94         53 
 38.96         49 
 38.98         47 
 39            54 
 39.02         48 
 39.04         36 
 39.06         56 
 39.08         45 
 39.1          50 
 39.12         62 
 39.14         44 
 39.16         47 
 39.18         60 
 39.2          54 
 39.22         58 
 39.24         62 
 39.26         49 
 39.28         60 
 39.3          46 
 39.32         50 
 39.34         57 
 39.36         52 
 39.38         39 
 39.4          47 
 39.42         47 
 39.44         50 
 39.46         50 
 39.48         39 
 39.5          53 
 39.52         48 
 39.54         34 
 39.56         39 
 39.58         35 
 39.6          34 
 39.62         52 
 39.64         43 
 39.66         37 
 39.68         41 
 39.7          48 
 39.72         32 
 39.74         50 
 39.76         40 
 39.78         46 
 39.8          36 
 39.82         43 
 39.84         38 
 39.86         50 
 39.88         48 
 39.9          49 
 39.92         39 
 39.94         66 
 39.96         31 
 39.98         51 
 40            38 
 40.02         47 
 40.04         43 
 40.06         42 
 40.08         40 
 40.1          49 
 40.12         42 
 40.14         50 
 40.16         42 
 40.18         45 
 40.2          49 
 40.22         57 
 40.24         46 
 40.26         45 
 40.28         34 
 40.3          49 
 40.32         35 
 40.34         56 
 40.36         47 
 40.38         43 
 40.4          42 
 40.42         34 
 40.44         46 
 40.46         47 
 40.48         45 
 40.5          31 
 40.52         39 
 40.54         41 
 40.56         53 
 40.58         46 
 40.6          54 
 40.62         47 
 40.64         40 
 40.66         41 
 40.68         40 
 40.7          45 
 40.72         35 
 40.74         50 
 40.76         43 
 40.78         53 
 40.8          56 
 40.82         30 
 40.84         41 
 40.86         53 
 40.88         41 
 40.9          48 
 40.92         59 
 40.94         47 
 40.96         48 
 40.98         48 
 41            36 
 41.02         56 
 41.04         45 
 41.06         68 
 41.08         41 
 41.1          51 
 41.12         54 
 41.14         56 
 41.16         64 
 41.18         68 
 41.2          87 
 41.22         79 
 41.24         73 
 41.26         80 
 41.28         70 
 41.3          84 
 41.32         70 
 41.34         80 
 41.36         55 
 41.38         55 
 41.4          66 
 41.42         52 
 41.44         50 
 41.46         45 
 41.48         46 
 41.5          59 
 41.52         50 
 41.54         53 
 41.56         39 
 41.58         34 
 41.6          51 
 41.62         53 
 41.64         52 
 41.66         45 
 41.68         55 
 41.7          49 
 41.72         50 
 41.74         49 
 41.76         54 
 41.78         49 
 41.8          37 
 41.82         43 
 41.84         55 
 41.86         39 
 41.88         41 
 41.9          51 
 41.92         37 
 41.94         34 
 41.96         51 
 41.98         44 
 42            60 
 42.02         36 
 42.04         35 
 42.06         47 
 42.08         53 
 42.1          50 
 42.12         44 
 42.14         52 
 42.16         39 
 42.18         46 
 42.2          54 
 42.22         40 
 42.24         46 
 42.26         52 
 42.28         47 
 42.3          51 
 42.32         47 
 42.34         57 
 42.36         39 
 42.38         47 
 42.4          56 
 42.42         56 
 42.44         47 
 42.46         68 
 42.48         57 
 42.5          55 
 42.52         51 
 42.54         72 
 42.56         73 
 42.58         69 
 42.6          75 
 42.62         86 
 42.64         80 
 42.66         84 
 42.68         81 
 42.7          94 
 42.72         88 
 42.74         101 
 42.76         113 
 42.78         112 
 42.8          128 
 42.82         140 
 42.84         148 
 42.86         136 
 42.88         168 
 42.9          195 
 42.92         207 
 42.94         258 
 42.96         283 
 42.98         334 
 43            380 
 43.02         475 
 43.04         536 
 43.06         670 
 43.08         809 
 43.1          1129 
 43.12         1499 
 43.14         2078 
 43.16         2891 
 43.18         4006 
 43.2          5347 
 43.22         6532 
 43.24         7487 
 43.26         7678 
 43.28         7245 
 43.3          6563 
 43.32         5539 
 43.34         4817 
 43.36         4296 
 43.38         3751 
 43.4          2884 
 43.42         2035 
 43.44         1263 
 43.46         858 
 43.48         532 
 43.5          401 
 43.52         364 
 43.54         307 
 43.56         265 
 43.58         212 
 43.6          218 
 43.62         213 
 43.64         183 
 43.66         159 
 43.68         157 
 43.7          158 
 43.72         138 
 43.74         141 
 43.76         105 
 43.78         109 
 43.8          104 
 43.82         108 
 43.84         110 
 43.86         89 
 43.88         82 
 43.9          90 
 43.92         86 
 43.94         89 
 43.96         84 
 43.98         83 
 44            78 
 44.02         88 
 44.04         81 
 44.06         82 
 44.08         80 
 44.1          89 
 44.12         72 
 44.14         58 
 44.16         72 
 44.18         70 
 44.2          69 
 44.22         62 
 44.24         60 
 44.26         59 
 44.28         55 
 44.3          44 
 44.32         50 
 44.34         42 
 44.36         41 
 44.38         50 
 44.4          51 
 44.42         60 
 44.44         47 
 44.46         59 
 44.48         40 
 44.5          64 
 44.52         68 
 44.54         54 
 44.56         47 
 44.58         46 
 44.6          33 
 44.62         41 
 44.64         56 
 44.66         54 
 44.68         44 
 44.7          44 
 44.72         40 
 44.74         50 
 44.76         44 
 44.78         45 
 44.8          40 
 44.82         42 
 44.84         54 
 44.86         46 
 44.88         40 
 44.9          45 
 44.92         45 
 44.94         50 
 44.96         46 
 44.98         42 
 45            28 
 45.02         48 
 45.04         54 
 45.06         44 
 45.08         39 
 45.1          43 
 45.12         42 
 45.14         36 
 45.16         46 
 45.18         33 
 45.2          52 
 45.22         48 
 45.24         43 
 45.26         32 
 45.28         45 
 45.3          40 
 45.32         50 
 45.34         43 
 45.36         37 
 45.38         37 
 45.4          45 
 45.42         58 
 45.44         33 
 45.46         49 
 45.48         43 
 45.5          45 
 45.52         49 
 45.54         39 
 45.56         27 
 45.58         45 
 45.6          46 
 45.62         51 
 45.64         39 
 45.66         35 
 45.68         40 
 45.7          41 
 45.72         42 
 45.74         39 
 45.76         40 
 45.78         43 
 45.8          37 
 45.82         44 
 45.84         38 
 45.86         44 
 45.88         39 
 45.9          47 
 45.92         45 
 45.94         41 
 45.96         29 
 45.98         30 
 46            39 
 46.02         52 
 46.04         31 
 46.06         39 
 46.08         39 
 46.1          50 
 46.12         51 
 46.14         41 
 46.16         46 
 46.18         42 
 46.2          40 
 46.22         36 
 46.24         32 
 46.26         43 
 46.28         48 
 46.3          39 
 46.32         38 
 46.34         31 
 46.36         58 
 46.38         37 
 46.4          49 
 46.42         43 
 46.44         49 
 46.46         41 
 46.48         51 
 46.5          42 
 46.52         46 
 46.54         46 
 46.56         32 
 46.58         43 
 46.6          56 
 46.62         30 
 46.64         34 
 46.66         40 
 46.68         46 
 46.7          44 
 46.72         33 
 46.74         43 
 46.76         44 
 46.78         39 
 46.8          50 
 46.82         43 
 46.84         42 
 46.86         48 
 46.88         51 
 46.9          43 
 46.92         38 
 46.94         54 
 46.96         48 
 46.98         61 
 47            54 
 47.02         52 
 47.04         39 
 47.06         54 
 47.08         66 
 47.1          60 
 47.12         68 
 47.14         86 
 47.16         93 
 47.18         93 
 47.2          124 
 47.22         138 
 47.24         163 
 47.26         246 
 47.28         348 
 47.3          486 
 47.32         645 
 47.34         704 
 47.36         768 
 47.38         756 
 47.4          677 
 47.42         574 
 47.44         461 
 47.46         489 
 47.48         416 
 47.5          405 
 47.52         306 
 47.54         212 
 47.56         147 
 47.58         117 
 47.6          80 
 47.62         69 
 47.64         66 
 47.66         55 
 47.68         61 
 47.7          48 
 47.72         55 
 47.74         45 
 47.76         63 
 47.78         43 
 47.8          58 
 47.82         50 
 47.84         34 
 47.86         47 
 47.88         45 
 47.9          41 
 47.92         45 
 47.94         44 
 47.96         36 
 47.98         46 
 48            39 
 48.02         37 
 48.04         38 
 48.06         44 
 48.08         42 
 48.1          48 
 48.12         42 
 48.14         45 
 48.16         40 
 48.18         41 
 48.2          33 
 48.22         30 
 48.24         47 
 48.26         47 
 48.28         46 
 48.3          41 
 48.32         49 
 48.34         48 
 48.36         37 
 48.38         46 
 48.4          37 
 48.42         34 
 48.44         43 
 48.46         30 
 48.48         44 
 48.5          34 
 48.52         53 
 48.54         39 
 48.56         36 
 48.58         42 
 48.6          39 
 48.62         32 
 48.64         46 
 48.66         42 
 48.68         39 
 48.7          39 
 48.72         37 
 48.74         36 
 48.76         45 
 48.78         33 
 48.8          30 
 48.82         40 
 48.84         29 
 48.86         40 
 48.88         35 
 48.9          41 
 48.92         36 
 48.94         31 
 48.96         40 
 48.98         42 
 49            36 
 49.02         47 
 49.04         34 
 49.06         36 
 49.08         51 
 49.1          34 
 49.12         43 
 49.14         35 
 49.16         36 
 49.18         39 
 49.2          32 
 49.22         40 
 49.24         40 
 49.26         38 
 49.28         41 
 49.3          42 
 49.32         37 
 49.34         46 
 49.36         39 
 49.38         45 
 49.4          39 
 49.42         39 
 49.44         36 
 49.46         43 
 49.48         45 
 49.5          30 
 49.52         42 
 49.54         29 
 49.56         45 
 49.58         39 
 49.6          31 
 49.62         38 
 49.64         45 
 49.66         40 
 49.68         45 
 49.7          43 
 49.72         37 
 49.74         37 
 49.76         43 
 49.78         33 
 49.8          34 
 49.82         34 
 49.84         33 
 49.86         37 
 49.88         40 
 49.9          36 
 49.92         51 
 49.94         33 
 49.96         32 
 49.98         47 
 50            38 
 50.02         46 
 50.04         32 
 50.06         54 
 50.08         51 
 50.1          35 
 50.12         40 
 50.14         42 
 50.16         35 
 50.18         53 
 50.2          50 
 50.22         34 
 50.24         41 
 50.26         46 
 50.28         40 
 50.3          46 
 50.32         40 
 50.34         37 
 50.36         50 
 50.38         36 
 50.4          46 
 50.42         44 
 50.44         27 
 50.46         37 
 50.48         46 
 50.5          44 
 50.52         31 
 50.54         44 
 50.56         33 
 50.58         48 
 50.6          37 
 50.62         42 
 50.64         36 
 50.66         42 
 50.68         37 
 50.7          49 
 50.72         38 
 50.74         50 
 50.76         40 
 50.78         32 
 50.8          35 
 50.82         39 
 50.84         33 
 50.86         29 
 50.88         41 
 50.9          51 
 50.92         39 
 50.94         41 
 50.96         39 
 50.98         40 
 51            32 
 51.02         35 
 51.04         56 
 51.06         39 
 51.08         38 
 51.1          30 
 51.12         37 
 51.14         34 
 51.16         40 
 51.18         43 
 51.2          34 
 51.22         42 
 51.24         41 
 51.26         39 
 51.28         45 
 51.3          38 
 51.32         42 
 51.34         44 
 51.36         39 
 51.38         33 
 51.4          32 
 51.42         44 
 51.44         47 
 51.46         46 
 51.48         34 
 51.5          33 
 51.52         33 
 51.54         35 
 51.56         54 
 51.58         31 
 51.6          25 
 51.62         41 
 51.64         37 
 51.66         27 
 51.68         29 
 51.7          41 
 51.72         36 
 51.74         45 
 51.76         29 
 51.78         33 
 51.8          40 
 51.82         34 
 51.84         36 
 51.86         23 
 51.88         35 
 51.9          36 
 51.92         40 
 51.94         26 
 51.96         42 
 51.98         39 
 52            36 
 52.02         37 
 52.04         41 
 52.06         39 
 52.08         35 
 52.1          38 
 52.12         37 
 52.14         34 
 52.16         44 
 52.18         27 
 52.2          38 
 52.22         40 
 52.24         41 
 52.26         35 
 52.28         36 
 52.3          41 
 52.32         39 
 52.34         32 
 52.36         44 
 52.38         53 
 52.4          54 
 52.42         30 
 52.44         29 
 52.46         48 
 52.48         33 
 52.5          36 
 52.52         36 
 52.54         44 
 52.56         42 
 52.58         38 
 52.6          40 
 52.62         43 
 52.64         33 
 52.66         34 
 52.68         55 
 52.7          41 
 52.72         47 
 52.74         45 
 52.76         32 
 52.78         43 
 52.8          39 
 52.82         49 
 52.84         39 
 52.86         43 
 52.88         32 
 52.9          39 
 52.92         33 
 52.94         35 
 52.96         43 
 52.98         43 
 53            36 
 53.02         41 
 53.04         29 
 53.06         48 
 53.08         36 
 53.1          26 
 53.12         35 
 53.14         35 
 53.16         33 
 53.18         31 
 53.2          39 
 53.22         39 
 53.24         38 
 53.26         45 
 53.28         38 
 53.3          45 
 53.32         46 
 53.34         43 
 53.36         34 
 53.38         41 
 53.4          33 
 53.42         32 
 53.44         28 
 53.46         40 
 53.48         34 
 53.5          43 
 53.52         37 
 53.54         35 
 53.56         39 
 53.58         47 
 53.6          54 
 53.62         55 
 53.64         53 
 53.66         54 
 53.68         51 
 53.7          40 
 53.72         46 
 53.74         39 
 53.76         34 
 53.78         54 
 53.8          54 
 53.82         65 
 53.84         42 
 53.86         40 
 53.88         42 
 53.9          37 
 53.92         38 
 53.94         43 
 53.96         36 
 53.98         37 
 54            38 
 54.02         45 
 54.04         37 
 54.06         49 
 54.08         51 
 54.1          48 
 54.12         56 
 54.14         45 
 54.16         31 
 54.18         53 
 54.2          64 
 54.22         92 
 54.24         85 
 54.26         108 
 54.28         96 
 54.3          116 
 54.32         130 
 54.34         135 
 54.36         115 
 54.38         139 
 54.4          97 
 54.42         117 
 54.44         108 
 54.46         95 
 54.48         98 
 54.5          97 
 54.52         67 
 54.54         83 
 54.56         61 
 54.58         52 
 54.6          45 
 54.62         48 
 54.64         42 
 54.66         43 
 54.68         43 
 54.7          43 
 54.72         41 
 54.74         40 
 54.76         33 
 54.78         27 
 54.8          41 
 54.82         39 
 54.84         38 
 54.86         53 
 54.88         31 
 54.9          43 
 54.92         54 
 54.94         39 
 54.96         40 
 54.98         28 
 55            41 
 55.02         36 
 55.04         40 
 55.06         36 
 55.08         52 
 55.1          46 
 55.12         54 
 55.14         48 
 55.16         38 
 55.18         50 
 55.2          44 
 55.22         37 
 55.24         34 
 55.26         49 
 55.28         38 
 55.3          39 
 55.32         36 
 55.34         31 
 55.36         35 
 55.38         42 
 55.4          39 
 55.42         34 
 55.44         43 
 55.46         40 
 55.48         36 
 55.5          46 
 55.52         46 
 55.54         50 
 55.56         45 
 55.58         41 
 55.6          38 
 55.62         45 
 55.64         39 
 55.66         38 
 55.68         45 
 55.7          36 
 55.72         46 
 55.74         39 
 55.76         49 
 55.78         39 
 55.8          46 
 55.82         45 
 55.84         54 
 55.86         45 
 55.88         34 
 55.9          37 
 55.92         40 
 55.94         51 
 55.96         48 
 55.98         50 
 56            46 
 56.02         34 
 56.04         43 
 56.06         39 
 56.08         55 
 56.1          42 
 56.12         52 
 56.14         35 
 56.16         58 
 56.18         51 
 56.2          39 
 56.22         53 
 56.24         34 
 56.26         57 
 56.28         43 
 56.3          47 
 56.32         47 
 56.34         47 
 56.36         53 
 56.38         57 
 56.4          56 
 56.42         57 
 56.44         56 
 56.46         58 
 56.48         49 
 56.5          39 
 56.52         55 
 56.54         71 
 56.56         68 
 56.58         65 
 56.6          76 
 56.62         67 
 56.64         78 
 56.66         87 
 56.68         81 
 56.7          89 
 56.72         71 
 56.74         87 
 56.76         71 
 56.78         77 
 56.8          78 
 56.82         99 
 56.84         95 
 56.86         89 
 56.88         94 
 56.9          131 
 56.92         122 
 56.94         131 
 56.96         141 
 56.98         162 
 57            180 
 57.02         202 
 57.04         247 
 57.06         285 
 57.08         418 
 57.1          602 
 57.12         764 
 57.14         1087 
 57.16         1489 
 57.18         1953 
 57.2          2204 
 57.22         2303 
 57.24         2122 
 57.26         1714 
 57.28         1465 
 57.3          1252 
 57.32         1152 
 57.34         1212 
 57.36         1200 
 57.38         1129 
 57.4          918 
 57.42         661 
 57.44         516 
 57.46         312 
 57.48         222 
 57.5          182 
 57.52         118 
 57.54         128 
 57.56         115 
 57.58         104 
 57.6          78 
 57.62         83 
 57.64         88 
 57.66         82 
 57.68         76 
 57.7          92 
 57.72         56 
 57.74         68 
 57.76         68 
 57.78         67 
 57.8          50 
 57.82         50 
 57.84         71 
 57.86         71 
 57.88         62 
 57.9          58 
 57.92         65 
 57.94         57 
 57.96         44 
 57.98         52 
 58            61 
 58.02         53 
 58.04         59 
 58.06         34 
 58.08         59 
 58.1          50 
 58.12         67 
 58.14         62 
 58.16         48 
 58.18         51 
 58.2          52 
 58.22         59 
 58.24         42 
 58.26         45 
 58.28         40 
 58.3          47 
 58.32         44 
 58.34         45 
 58.36         38 
 58.38         47 
 58.4          44 
 58.42         46 
 58.44         46 
 58.46         62 
 58.48         47 
 58.5          56 
 58.52         56 
 58.54         52 
 58.56         45 
 58.58         44 
 58.6          44 
 58.62         42 
 58.64         53 
 58.66         43 
 58.68         39 
 58.7          42 
 58.72         46 
 58.74         38 
 58.76         58 
 58.78         49 
 58.8          42 
 58.82         44 
 58.84         45 
 58.86         52 
 58.88         50 
 58.9          48 
 58.92         33 
 58.94         32 
 58.96         41 
 58.98         48 
 59            44 
 59.02         43 
 59.04         53 
 59.06         58 
 59.08         49 
 59.1          47 
 59.12         44 
 59.14         46 
 59.16         36 
 59.18         45 
 59.2          49 
 59.22         50 
 59.24         43 
 59.26         33 
 59.28         55 
 59.3          52 
 59.32         45 
 59.34         58 
 59.36         46 
 59.38         40 
 59.4          44 
 59.42         37 
 59.44         44 
 59.46         45 
 59.48         49 
 59.5          52 
 59.52         48 
 59.54         46 
 59.56         53 
 59.58         38 
 59.6          51 
 59.62         51 
 59.64         49 
 59.66         39 
 59.68         38 
 59.7          47 
 59.72         44 
 59.74         45 
 59.76         45 
 59.78         34 
 59.8          63 
 59.82         49 
 59.84         44 
 59.86         44 
 59.88         49 
 59.9          39 
 59.92         37 
 59.94         47 
 59.96         52 
 59.98         55 
 60            36 
 60.02         38 
 60.04         63 
 60.06         39 
 60.08         44 
 60.1          47 
 60.12         44 
 60.14         57 
 60.16         43 
 60.18         41 
 60.2          47 
 60.22         62 
 60.24         44 
 60.26         46 
 60.28         40 
 60.3          34 
 60.32         36 
 60.34         44 
 60.36         45 
 60.38         49 
 60.4          38 
 60.42         43 
 60.44         46 
 60.46         49 
 60.48         46 
 60.5          46 
 60.52         60 
 60.54         38 
 60.56         51 
 60.58         41 
 60.6          45 
 60.62         47 
 60.64         48 
 60.66         40 
 60.68         43 
 60.7          40 
 60.72         54 
 60.74         43 
 60.76         35 
 60.78         42 
 60.8          49 
 60.82         55 
 60.84         39 
 60.86         40 
 60.88         43 
 60.9          48 
 60.92         45 
 60.94         47 
 60.96         42 
 60.98         46 
 61            51 
 61.02         49 
 61.04         50 
 61.06         37 
 61.08         41 
 61.1          50 
 61.12         43 
 61.14         39 
 61.16         38 
 61.18         49 
 61.2          61 
 61.22         52 
 61.24         36 
 61.26         48 
 61.28         47 
 61.3          60 
 61.32         45 
 61.34         53 
 61.36         44 
 61.38         55 
 61.4          46 
 61.42         41 
 61.44         61 
 61.46         50 
 61.48         39 
 61.5          58 
 61.52         60 
 61.54         65 
 61.56         45 
 61.58         51 
 61.6          50 
 61.62         65 
 61.64         48 
 61.66         49 
 61.68         61 
 61.7          47 
 61.72         59 
 61.74         50 
 61.76         56 
 61.78         43 
 61.8          50 
 61.82         48 
 61.84         62 
 61.86         46 
 61.88         36 
 61.9          43 
 61.92         44 
 61.94         49 
 61.96         59 
 61.98         58 
 62            58 
 62.02         63 
 62.04         60 
 62.06         58 
 62.08         54 
 62.1          58 
 62.12         53 
 62.14         66 
 62.16         56 
 62.18         58 
 62.2          74 
 62.22         67 
 62.24         63 
 62.26         63 
 62.28         76 
 62.3          84 
 62.32         66 
 62.34         80 
 62.36         85 
 62.38         100 
 62.4          94 
 62.42         91 
 62.44         117 
 62.46         140 
 62.48         138 
 62.5          185 
 62.52         185 
 62.54         177 
 62.56         220 
 62.58         224 
 62.6          242 
 62.62         232 
 62.64         297 
 62.66         378 
 62.68         494 
 62.7          615 
 62.72         880 
 62.74         1333 
 62.76         1961 
 62.78         2603 
 62.8          3414 
 62.82         3736 
 62.84         3851 
 62.86         3559 
 62.88         2918 
 62.9          2219 
 62.92         1830 
 62.94         1785 
 62.96         1959 
 62.98         2043 
 63            2139 
 63.02         1917 
 63.04         1631 
 63.06         1159 
 63.08         794 
 63.1          520 
 63.12         360 
 63.14         294 
 63.16         236 
 63.18         179 
 63.2          162 
 63.22         139 
 63.24         129 
 63.26         137 
 63.28         116 
 63.3          132 
 63.32         86 
 63.34         93 
 63.36         102 
 63.38         103 
 63.4          104 
 63.42         98 
 63.44         82 
 63.46         66 
 63.48         65 
 63.5          76 
 63.52         87 
 63.54         75 
 63.56         75 
 63.58         73 
 63.6          81 
 63.62         68 
 63.64         69 
 63.66         72 
 63.68         85 
 63.7          68 
 63.72         51 
 63.74         86 
 63.76         61 
 63.78         80 
 63.8          48 
 63.82         70 
 63.84         62 
 63.86         58 
 63.88         65 
 63.9          54 
 63.92         58 
 63.94         73 
 63.96         55 
 63.98         54 
 64            50 
 64.02         76 
 64.04         83 
 64.06         59 
 64.08         63 
 64.1          62 
 64.12         65 
 64.14         60 
 64.16         51 
 64.18         65 
 64.2          59 
 64.22         56 
 64.24         62 
 64.26         51 
 64.28         39 
 64.3          56 
 64.32         49 
 64.34         58 
 64.36         47 
 64.38         55 
 64.4          42 
 64.42         55 
 64.44         54 
 64.46         57 
 64.48         44 
 64.5          55 
 64.52         40 
 64.54         55 
 64.56         67 
 64.58         47 
 64.6          47 
 64.62         40 
 64.64         47 
 64.66         53 
 64.68         44 
 64.7          43 
 64.72         39 
 64.74         46 
 64.76         44 
 64.78         50 
 64.8          55 
 64.82         49 
 64.84         52 
 64.86         41 
 64.88         48 
 64.9          47 
 64.92         55 
 64.94         45 
 64.96         49 
 64.98         36 
 65            56 
 65.02         51 
 65.04         58 
 65.06         44 
 65.08         49 
 65.1          62 
 65.12         43 
 65.14         44 
 65.16         49 
 65.18         50 
 65.2          35 
 65.22         48 
 65.24         42 
 65.26         43 
 65.28         50 
 65.3          51 
 65.32         54 
 65.34         46 
 65.36         55 
 65.38         44 
 65.4          43 
 65.42         40 
 65.44         48 
 65.46         42 
 65.48         59 
 65.5          56 
 65.52         63 
 65.54         49 
 65.56         60 
 65.58         57 
 65.6          58 
 65.62         58 
 65.64         56 
 65.66         70 
 65.68         65 
 65.7          56 
 65.72         80 
 65.74         74 
 65.76         71 
 65.78         91 
 65.8          84 
 65.82         102 
 65.84         109 
 65.86         120 
 65.88         123 
 65.9          150 
 65.92         195 
 65.94         258 
 65.96         374 
 65.98         513 
 66            723 
 66.02         956 
 66.04         1154 
 66.06         1295 
 66.08         1329 
 66.1          1210 
 66.12         924 
 66.14         680 
 66.16         583 
 66.18         520 
 66.2          615 
 66.22         684 
 66.24         714 
 66.26         721 
 66.28         585 
 66.3          455 
 66.32         371 
 66.34         226 
 66.36         177 
 66.38         133 
 66.4          114 
 66.42         88 
 66.44         91 
 66.46         78 
 66.48         72 
 66.5          68 
 66.52         73 
 66.54         51 
 66.56         63 
 66.58         66 
 66.6          53 
 66.62         65 
 66.64         49 
 66.66         48 
 66.68         37 
 66.7          47 
 66.72         62 
 66.74         56 
 66.76         68 
 66.78         52 
 66.8          60 
 66.82         60 
 66.84         51 
 66.86         58 
 66.88         56 
 66.9          45 
 66.92         48 
 66.94         54 
 66.96         41 
 66.98         48 
 67            57 
 67.02         49 
 67.04         54 
 67.06         51 
 67.08         44 
 67.1          56 
 67.12         46 
 67.14         62 
 67.16         57 
 67.18         47 
 67.2          55 
 67.22         52 
 67.24         60 
 67.26         48 
 67.28         43 
 67.3          38 
 67.32         45 
 67.34         50 
 67.36         40 
 67.38         50 
 67.4          45 
 67.42         51 
 67.44         42 
 67.46         46 
 67.48         45 
 67.5          50 
 67.52         35 
 67.54         50 
 67.56         29 
 67.58         41 
 67.6          39 
 67.62         39 
 67.64         47 
 67.66         40 
 67.68         46 
 67.7          35 
 67.72         38 
 67.74         47 
 67.76         39 
 67.78         33 
 67.8          47 
 67.82         37 
 67.84         50 
 67.86         31 
 67.88         33 
 67.9          37 
 67.92         38 
 67.94         40 
 67.96         45 
 67.98         43 
 68            47 
 68.02         41 
 68.04         42 
 68.06         35 
 68.08         35 
 68.1          34 
 68.12         39 
 68.14         49 
 68.16         42 
 68.18         40 
 68.2          49 
 68.22         29 
 68.24         39 
 68.26         37 
 68.28         44 
 68.3          43 
 68.32         50 
 68.34         41 
 68.36         39 
 68.38         40 
 68.4          39 
 68.42         38 
 68.44         35 
 68.46         50 
 68.48         41 
 68.5          26 
 68.52         42 
 68.54         27 
 68.56         41 
 68.58         32 
 68.6          37 
 68.62         33 
 68.64         36 
 68.66         40 
 68.68         42 
 68.7          36 
 68.72         37 
 68.74         50 
 68.76         31 
 68.78         42 
 68.8          45 
 68.82         39 
 68.84         43 
 68.86         44 
 68.88         44 
 68.9          65 
 68.92         62 
 68.94         58 
 68.96         59 
 68.98         61 
 69            62 
 69.02         67 
 69.04         65 
 69.06         46 
 69.08         50 
 69.1          49 
 69.12         55 
 69.14         46 
 69.16         48 
 69.18         56 
 69.2          38 
 69.22         42 
 69.24         51 
 69.26         44 
 69.28         45 
 69.3          40 
 69.32         25 
 69.34         31 
 69.36         43 
 69.38         36 
 69.4          30 
 69.42         39 
 69.44         36 
 69.46         33 
 69.48         32 
 69.5          39 
 69.52         37 
 69.54         39 
 69.56         44 
 69.58         32 
 69.6          30 
 69.62         38 
 69.64         33 
 69.66         32 
 69.68         56 
 69.7          33 
 69.72         44 
 69.74         44 
 69.76         37 
 69.78         58 
 69.8          45 
 69.82         47 
 69.84         47 
 69.86         58 
 69.88         38 
 69.9          39 
 69.92         38 
 69.94         38 
 69.96         49 
 69.98         45 
 70            47 
 70.02         37 
 70.04         39 
 70.06         33 
 70.08         48 
 70.1          42 
 70.12         22 
 70.14         48 
 70.16         39 
 70.18         29 
 70.2          39 
 70.22         38 
 70.24         31 
 70.26         44 
 70.28         30 
 70.3          22 
 70.32         31 
 70.34         33 
 70.36         37 
 70.38         32 
 70.4          37 
 70.42         35 
 70.44         37 
 70.46         25 
 70.48         44 
 70.5          41 
 70.52         28 
 70.54         25 
 70.56         32 
 70.58         25 
 70.6          33 
 70.62         31 
 70.64         36 
 70.66         34 
 70.68         43 
 70.7          24 
 70.72         23 
 70.74         26 
 70.76         30 
 70.78         33 
 70.8          21 
 70.82         36 
 70.84         38 
 70.86         40 
 70.88         24 
 70.9          39 
 70.92         26 
 70.94         36 
 70.96         35 
 70.98         32 
 71            45 
 71.02         32 
 71.04         35 
 71.06         25 
 71.08         38 
 71.1          29 
 71.12         27 
 71.14         39 
 71.16         46 
 71.18         28 
 71.2          36 
 71.22         32 
 71.24         30 
 71.26         43 
 71.28         42 
 71.3          36 
 71.32         38 
 71.34         30 
 71.36         36 
 71.38         33 
 71.4          37 
 71.42         20 
 71.44         34 
 71.46         36 
 71.48         28 
 71.5          29 
 71.52         39 
 71.54         40 
 71.56         23 
 71.58         35 
 71.6          35 
 71.62         32 
 71.64         30 
 71.66         26 
 71.68         36 
 71.7          32 
 71.72         35 
 71.74         35 
 71.76         39 
 71.78         32 
 71.8          31 
 71.82         32 
 71.84         30 
 71.86         35 
 71.88         33 
 71.9          40 
 71.92         27 
 71.94         44 
 71.96         30 
 71.98         31 
 72            32 
 72.02         42 
 72.04         31 
 72.06         33 
 72.08         27 
 72.1          36 
 72.12         36 
 72.14         32 
 72.16         34 
 72.18         26 
 72.2          39 
 72.22         36 
 72.24         27 
 72.26         43 
 72.28         37 
 72.3          30 
 72.32         40 
 72.34         21 
 72.36         39 
 72.38         33 
 72.4          33 
 72.42         37 
 72.44         43 
 72.46         28 
 72.48         30 
 72.5          41 
 72.52         33 
 72.54         37 
 72.56         36 
 72.58         28 
 72.6          37 
 72.62         32 
 72.64         32 
 72.66         33 
 72.68         35 
 72.7          25 
 72.72         35 
 72.74         27 
 72.76         26 
 72.78         50 
 72.8          34 
 72.82         28 
 72.84         32 
 72.86         34 
 72.88         31 
 72.9          23 
 72.92         31 
 72.94         46 
 72.96         33 
 72.98         31 
 73            33 
 73.02         30 
 73.04         32 
 73.06         32 
 73.08         24 
 73.1          30 
 73.12         31 
 73.14         40 
 73.16         22 
 73.18         32 
 73.2          28 
 73.22         22 
 73.24         27 
 73.26         31 
 73.28         27 
 73.3          38 
 73.32         23 
 73.34         33 
 73.36         29 
 73.38         26 
 73.4          30 
 73.42         41 
 73.44         35 
 73.46         40 
 73.48         32 
 73.5          37 
 73.52         37 
 73.54         31 
 73.56         32 
 73.58         36 
 73.6          25 
 73.62         42 
 73.64         39 
 73.66         35 
 73.68         26 
 73.7          28 
 73.72         38 
 73.74         38 
 73.76         38 
 73.78         24 
 73.8          29 
 73.82         36 
 73.84         33 
 73.86         38 
 73.88         42 
 73.9          32 
 73.92         39 
 73.93999      34 
 73.96         44 
 73.98         41 
 74            51 
 74.02         41 
 74.04         47 
 74.06         48 
 74.08         38 
 74.1          47 
 74.12         57 
 74.14         64 
 74.16         58 
 74.18         56 
 74.2          75 
 74.22         95 
 74.24         120 
 74.26         173 
 74.28         224 
 74.3          298 
 74.32         365 
 74.34         475 
 74.36         442 
 74.38         420 
 74.4          335 
 74.42         252 
 74.43999      195 
 74.46         170 
 74.48         162 
 74.5          180 
 74.52         198 
 74.54         217 
 74.56         209 
 74.58         253 
 74.6          187 
 74.62         160 
 74.64         110 
 74.66         100 
 74.68         73 
 74.7          63 
 74.72         56 
 74.74         34 
 74.76         53 
 74.78         46 
 74.8          44 
 74.82         42 
 74.84         45 
 74.86         39 
 74.88         38 
 74.9          41 
 74.92         44 
 74.93999      38 
 74.96         46 
 74.98         55 
 75            36 
