P903 LTP Tobias  Original Data
 3151 
 12            431 
 12,02         454 
 12,04         390 
 12,06         414 
 12,08         370 
 12,1          370 
 12,12         398 
 12,14         386 
 12,16         424 
 12,18         400 
 12,2          391 
 12,22         421 
 12,24         399 
 12,26         430 
 12,28         412 
 12,3          408 
 12,32         392 
 12,34         398 
 12,36         425 
 12,38         432 
 12,4          390 
 12,42         420 
 12,44         411 
 12,46         416 
 12,48         417 
 12,5          410 
 12,52         428 
 12,54         372 
 12,56         391 
 12,58         387 
 12,6          430 
 12,62         377 
 12,64         391 
 12,66         354 
 12,68         393 
 12,7          404 
 12,72         372 
 12,74         399 
 12,76         358 
 12,78         377 
 12,8          390 
 12,82         412 
 12,84         377 
 12,86         370 
 12,88         406 
 12,9          403 
 12,92         348 
 12,94         410 
 12,96         425 
 12,98         357 
 13            392 
 13,02         395 
 13,04         364 
 13,06         379 
 13,08         366 
 13,1          351 
 13,12         393 
 13,14         384 
 13,16         364 
 13,18         385 
 13,2          332 
 13,22         361 
 13,24         398 
 13,26         377 
 13,28         363 
 13,3          291 
 13,32         354 
 13,34         370 
 13,36         358 
 13,38         345 
 13,4          315 
 13,42         331 
 13,44         377 
 13,46         334 
 13,48         319 
 13,5          296 
 13,52         294 
 13,54         350 
 13,56         300 
 13,58         326 
 13,6          313 
 13,62         334 
 13,64         317 
 13,66         348 
 13,68         326 
 13,7          301 
 13,72         275 
 13,74         289 
 13,76         309 
 13,78         294 
 13,8          301 
 13,82         297 
 13,84         276 
 13,86         288 
 13,88         291 
 13,9          321 
 13,92         289 
 13,94         250 
 13,96         317 
 13,98         287 
 14            261 
 14,02         301 
 14,04         302 
 14,06         270 
 14,08         270 
 14,1          290 
 14,12         260 
 14,14         279 
 14,16         274 
 14,18         232 
 14,2          271 
 14,22         272 
 14,24         240 
 14,26         270 
 14,28         238 
 14,3          223 
 14,32         251 
 14,34         238 
 14,36         234 
 14,38         235 
 14,4          260 
 14,42         265 
 14,44         247 
 14,46         226 
 14,48         268 
 14,5          241 
 14,52         257 
 14,54         244 
 14,56         246 
 14,58         240 
 14,6          277 
 14,62         290 
 14,64         286 
 14,66         256 
 14,68         265 
 14,7          231 
 14,72         224 
 14,74         250 
 14,76         196 
 14,78         229 
 14,8          225 
 14,82         187 
 14,84         176 
 14,86         228 
 14,88         176 
 14,9          211 
 14,92         206 
 14,94         181 
 14,96         180 
 14,98         199 
 15            177 
 15,02         210 
 15,04         179 
 15,06         176 
 15,08         186 
 15,1          186 
 15,12         173 
 15,14         180 
 15,16         179 
 15,18         202 
 15,2          176 
 15,22         167 
 15,24         154 
 15,26         174 
 15,28         190 
 15,3          169 
 15,32         174 
 15,34         178 
 15,36         146 
 15,38         130 
 15,4          171 
 15,42         171 
 15,44         158 
 15,46         169 
 15,48         171 
 15,5          167 
 15,52         139 
 15,54         169 
 15,56         161 
 15,58         176 
 15,6          147 
 15,62         158 
 15,64         157 
 15,66         174 
 15,68         169 
 15,7          167 
 15,72         139 
 15,74         143 
 15,76         132 
 15,78         135 
 15,8          156 
 15,82         138 
 15,84         150 
 15,86         137 
 15,88         138 
 15,9          135 
 15,92         135 
 15,94         128 
 15,96         147 
 15,98         135 
 16            154 
 16,02         162 
 16,04         144 
 16,06         157 
 16,08         113 
 16,1          119 
 16,12         120 
 16,14         139 
 16,16         141 
 16,18         136 
 16,2          140 
 16,22         130 
 16,24         118 
 16,26         144 
 16,28         130 
 16,3          137 
 16,32         120 
 16,34         130 
 16,36         130 
 16,38         127 
 16,4          126 
 16,42         137 
 16,44         134 
 16,46         116 
 16,48         120 
 16,5          125 
 16,52         122 
 16,54         132 
 16,56         132 
 16,58         157 
 16,6          125 
 16,62         156 
 16,64         145 
 16,66         168 
 16,68         177 
 16,7          169 
 16,72         192 
 16,74         172 
 16,76         234 
 16,78         213 
 16,8          233 
 16,82         263 
 16,84         297 
 16,86         292 
 16,88         326 
 16,9          360 
 16,92         418 
 16,94         449 
 16,96         559 
 16,98         679 
 17            814 
 17,02         921 
 17,04         1133 
 17,06         1237 
 17,08         1438 
 17,1          1408 
 17,12         1267 
 17,14         1021 
 17,16         703 
 17,18         472 
 17,2          286 
 17,22         177 
 17,24         155 
 17,26         157 
 17,28         144 
 17,3          131 
 17,32         134 
 17,34         139 
 17,36         111 
 17,38         116 
 17,4          109 
 17,42         100 
 17,44         125 
 17,46         118 
 17,48         105 
 17,5          123 
 17,52         88 
 17,54         129 
 17,56         95 
 17,58         108 
 17,6          101 
 17,62         108 
 17,64         106 
 17,66         112 
 17,68         97 
 17,7          100 
 17,72         89 
 17,74         111 
 17,76         99 
 17,78         109 
 17,8          128 
 17,82         115 
 17,84         86 
 17,86         107 
 17,88         119 
 17,9          113 
 17,92         110 
 17,94         121 
 17,96         110 
 17,98         104 
 18            132 
 18,02         117 
 18,04         123 
 18,06         124 
 18,08         138 
 18,1          161 
 18,12         157 
 18,14         163 
 18,16         181 
 18,18         224 
 18,2          224 
 18,22         213 
 18,24         281 
 18,26         303 
 18,28         338 
 18,3          392 
 18,32         443 
 18,34         516 
 18,36         595 
 18,38         744 
 18,4          865 
 18,42         1052 
 18,44         1255 
 18,46         1519 
 18,48         1726 
 18,5          1945 
 18,52         1855 
 18,54         1539 
 18,56         1228 
 18,58         830 
 18,6          534 
 18,62         321 
 18,64         194 
 18,66         156 
 18,68         129 
 18,7          115 
 18,72         119 
 18,74         111 
 18,76         114 
 18,78         93 
 18,8          96 
 18,82         88 
 18,84         93 
 18,86         98 
 18,88         95 
 18,9          80 
 18,92         110 
 18,94         89 
 18,96         91 
 18,98         84 
 19            98 
 19,02         115 
 19,04         92 
 19,06         98 
 19,08         91 
 19,1          94 
 19,12         69 
 19,14         107 
 19,16         87 
 19,18         86 
 19,2          80 
 19,22         106 
 19,24         90 
 19,26         87 
 19,28         83 
 19,3          70 
 19,32         95 
 19,34         81 
 19,36         80 
 19,38         90 
 19,4          84 
 19,42         75 
 19,44         81 
 19,46         86 
 19,48         93 
 19,5          83 
 19,52         75 
 19,54         82 
 19,56         98 
 19,58         80 
 19,6          79 
 19,62         74 
 19,64         87 
 19,66         95 
 19,68         96 
 19,7          79 
 19,72         90 
 19,74         93 
 19,76         95 
 19,78         81 
 19,8          82 
 19,82         72 
 19,84         87 
 19,86         106 
 19,88         97 
 19,9          68 
 19,92         82 
 19,94         75 
 19,96         86 
 19,98         78 
 20            75 
 20,02         86 
 20,04         103 
 20,06         74 
 20,08         100 
 20,1          83 
 20,12         91 
 20,14         85 
 20,16         83 
 20,18         78 
 20,2          100 
 20,22         80 
 20,24         88 
 20,26         93 
 20,28         97 
 20,3          94 
 20,32         71 
 20,34         115 
 20,36         93 
 20,38         106 
 20,4          115 
 20,42         101 
 20,44         79 
 20,46         94 
 20,48         102 
 20,5          102 
 20,52         112 
 20,54         90 
 20,56         96 
 20,58         104 
 20,6          98 
 20,62         121 
 20,64         133 
 20,66         120 
 20,68         157 
 20,7          140 
 20,72         177 
 20,74         182 
 20,76         219 
 20,78         214 
 20,8          236 
 20,82         255 
 20,84         245 
 20,86         213 
 20,88         211 
 20,9          156 
 20,92         156 
 20,94         118 
 20,96         109 
 20,98         96 
 21            79 
 21,02         88 
 21,04         73 
 21,06         76 
 21,08         96 
 21,1          63 
 21,12         80 
 21,14         61 
 21,16         89 
 21,18         80 
 21,2          80 
 21,22         97 
 21,24         80 
 21,26         85 
 21,28         74 
 21,3          72 
 21,32         78 
 21,34         72 
 21,36         73 
 21,38         64 
 21,4          75 
 21,42         87 
 21,44         69 
 21,46         84 
 21,48         88 
 21,5          70 
 21,52         89 
 21,54         77 
 21,56         82 
 21,58         74 
 21,6          70 
 21,62         55 
 21,64         76 
 21,66         82 
 21,68         89 
 21,7          98 
 21,72         101 
 21,74         98 
 21,76         110 
 21,78         123 
 21,8          112 
 21,82         120 
 21,84         127 
 21,86         160 
 21,88         170 
 21,9          180 
 21,92         208 
 21,94         242 
 21,96         301 
 21,98         384 
 22            397 
 22,02         464 
 22,04         608 
 22,06         665 
 22,08         772 
 22,1          780 
 22,12         650 
 22,14         543 
 22,16         390 
 22,18         300 
 22,2          206 
 22,22         172 
 22,24         158 
 22,26         150 
 22,28         173 
 22,3          169 
 22,32         149 
 22,34         164 
 22,36         115 
 22,38         105 
 22,4          93 
 22,42         88 
 22,44         81 
 22,46         77 
 22,48         97 
 22,5          79 
 22,52         96 
 22,54         82 
 22,56         76 
 22,58         69 
 22,6          76 
 22,62         62 
 22,64         64 
 22,66         61 
 22,68         50 
 22,7          67 
 22,72         67 
 22,74         82 
 22,76         83 
 22,78         74 
 22,8          67 
 22,82         69 
 22,84         68 
 22,86         65 
 22,88         65 
 22,9          75 
 22,92         80 
 22,94         79 
 22,96         70 
 22,98         95 
 23            80 
 23,02         91 
 23,04         98 
 23,06         120 
 23,08         134 
 23,1          110 
 23,12         132 
 23,14         129 
 23,16         116 
 23,18         128 
 23,2          104 
 23,22         98 
 23,24         55 
 23,26         61 
 23,28         61 
 23,3          69 
 23,32         56 
 23,34         62 
 23,36         75 
 23,38         72 
 23,4          80 
 23,42         93 
 23,44         57 
 23,46         65 
 23,48         58 
 23,5          72 
 23,52         76 
 23,54         54 
 23,56         77 
 23,58         59 
 23,6          91 
 23,62         72 
 23,64         64 
 23,66         74 
 23,68         71 
 23,7          58 
 23,72         77 
 23,74         69 
 23,76         89 
 23,78         109 
 23,8          96 
 23,82         112 
 23,84         110 
 23,86         129 
 23,88         150 
 23,9          188 
 23,92         209 
 23,94         247 
 23,96         314 
 23,98         324 
 24            387 
 24,02         342 
 24,04         331 
 24,06         271 
 24,08         239 
 24,1          151 
 24,12         125 
 24,14         129 
 24,16         122 
 24,18         132 
 24,2          143 
 24,22         136 
 24,24         167 
 24,26         176 
 24,28         224 
 24,3          233 
 24,32         269 
 24,34         339 
 24,36         350 
 24,38         466 
 24,4          506 
 24,42         660 
 24,44         835 
 24,46         1024 
 24,48         1214 
 24,5          1518 
 24,52         1687 
 24,54         1876 
 24,56         1903 
 24,58         1759 
 24,6          1516 
 24,62         1264 
 24,64         942 
 24,66         565 
 24,68         378 
 24,7          294 
 24,72         199 
 24,74         168 
 24,76         164 
 24,78         150 
 24,8          120 
 24,82         127 
 24,84         133 
 24,86         87 
 24,88         87 
 24,9          90 
 24,92         99 
 24,94         90 
 24,96         94 
 24,98         105 
 25            119 
 25,02         113 
 25,04         108 
 25,06         127 
 25,08         148 
 25,1          167 
 25,12         183 
 25,14         223 
 25,16         240 
 25,18         286 
 25,2          326 
 25,22         360 
 25,24         412 
 25,26         446 
 25,28         455 
 25,3          416 
 25,32         451 
 25,34         388 
 25,36         376 
 25,38         252 
 25,4          243 
 25,42         194 
 25,44         166 
 25,46         137 
 25,48         151 
 25,5          119 
 25,52         132 
 25,54         115 
 25,56         111 
 25,58         97 
 25,6          101 
 25,62         105 
 25,64         89 
 25,66         92 
 25,68         79 
 25,7          71 
 25,72         64 
 25,74         58 
 25,76         84 
 25,78         79 
 25,8          78 
 25,82         51 
 25,84         59 
 25,86         46 
 25,88         56 
 25,9          65 
 25,92         54 
 25,94         60 
 25,96         57 
 25,98         49 
 26            61 
 26,02         67 
 26,04         70 
 26,06         63 
 26,08         58 
 26,1          73 
 26,12         71 
 26,14         53 
 26,16         56 
 26,18         63 
 26,2          61 
 26,22         58 
 26,24         78 
 26,26         60 
 26,28         60 
 26,3          64 
 26,32         67 
 26,34         85 
 26,36         75 
 26,38         81 
 26,4          62 
 26,42         66 
 26,44         80 
 26,46         89 
 26,48         72 
 26,5          94 
 26,52         114 
 26,54         125 
 26,56         115 
 26,58         138 
 26,6          186 
 26,62         184 
 26,64         210 
 26,66         266 
 26,68         290 
 26,7          312 
 26,72         365 
 26,74         423 
 26,76         506 
 26,78         644 
 26,8          754 
 26,82         935 
 26,84         1203 
 26,86         1546 
 26,88         2031 
 26,9          2636 
 26,92         3310 
 26,94         4401 
 26,96         5643 
 26,98         7042 
 27            8073 
 27,02         8663 
 27,04         8724 
 27,06         7169 
 27,08         5660 
 27,1          4207 
 27,12         2845 
 27,14         1760 
 27,16         1191 
 27,18         765 
 27,2          647 
 27,22         652 
 27,24         689 
 27,26         763 
 27,28         1003 
 27,3          1233 
 27,32         1541 
 27,34         2003 
 27,36         2229 
 27,38         2732 
 27,4          2772 
 27,42         2779 
 27,44         2465 
 27,46         1977 
 27,48         1471 
 27,5          1072 
 27,52         733 
 27,54         486 
 27,56         308 
 27,58         292 
 27,6          278 
 27,62         283 
 27,64         301 
 27,66         293 
 27,68         353 
 27,7          385 
 27,72         495 
 27,74         600 
 27,76         748 
 27,78         907 
 27,8          1185 
 27,82         1505 
 27,84         1925 
 27,86         2573 
 27,88         3582 
 27,9          4263 
 27,92         5130 
 27,94         5545 
 27,96         5823 
 27,98         5232 
 28            4382 
 28,02         3318 
 28,04         2197 
 28,06         1489 
 28,08         906 
 28,1          506 
 28,12         302 
 28,14         251 
 28,16         196 
 28,18         162 
 28,2          134 
 28,22         141 
 28,24         128 
 28,26         121 
 28,28         84 
 28,3          113 
 28,32         76 
 28,34         84 
 28,36         86 
 28,38         59 
 28,4          77 
 28,42         69 
 28,44         70 
 28,46         54 
 28,48         60 
 28,5          77 
 28,52         67 
 28,54         62 
 28,56         70 
 28,58         52 
 28,6          45 
 28,62         70 
 28,64         49 
 28,66         58 
 28,68         63 
 28,7          65 
 28,72         54 
 28,74         68 
 28,76         61 
 28,78         56 
 28,8          64 
 28,82         61 
 28,84         63 
 28,86         70 
 28,88         47 
 28,9          57 
 28,92         59 
 28,94         50 
 28,96         56 
 28,98         76 
 29            60 
 29,02         77 
 29,04         56 
 29,06         67 
 29,08         58 
 29,1          63 
 29,12         72 
 29,14         62 
 29,16         75 
 29,18         64 
 29,2          60 
 29,22         58 
 29,24         59 
 29,26         63 
 29,28         50 
 29,3          49 
 29,32         58 
 29,34         50 
 29,36         45 
 29,38         53 
 29,4          72 
 29,42         54 
 29,44         54 
 29,46         62 
 29,48         78 
 29,5          65 
 29,52         97 
 29,54         93 
 29,56         103 
 29,58         136 
 29,6          126 
 29,62         136 
 29,64         148 
 29,66         142 
 29,68         129 
 29,7          117 
 29,72         92 
 29,74         93 
 29,76         73 
 29,78         58 
 29,8          54 
 29,82         56 
 29,84         58 
 29,86         58 
 29,88         51 
 29,9          61 
 29,92         64 
 29,94         39 
 29,96         44 
 29,98         43 
 30            50 
 30,02         50 
 30,04         63 
 30,06         34 
 30,08         53 
 30,1          61 
 30,12         57 
 30,14         74 
 30,16         58 
 30,18         71 
 30,2          82 
 30,22         76 
 30,24         84 
 30,26         101 
 30,28         93 
 30,3          130 
 30,32         148 
 30,34         199 
 30,36         225 
 30,38         321 
 30,4          363 
 30,42         507 
 30,44         652 
 30,46         796 
 30,48         896 
 30,5          963 
 30,52         935 
 30,54         889 
 30,56         667 
 30,58         499 
 30,6          432 
 30,62         334 
 30,64         319 
 30,66         253 
 30,68         326 
 30,7          381 
 30,72         454 
 30,74         608 
 30,76         756 
 30,78         986 
 30,8          1198 
 30,82         1317 
 30,84         1466 
 30,86         1355 
 30,88         1177 
 30,9          961 
 30,92         716 
 30,94         555 
 30,96         360 
 30,98         219 
 31            145 
 31,02         98 
 31,04         92 
 31,06         78 
 31,08         68 
 31,1          60 
 31,12         56 
 31,14         54 
 31,16         60 
 31,18         60 
 31,2          52 
 31,22         61 
 31,24         46 
 31,26         53 
 31,28         48 
 31,3          49 
 31,32         68 
 31,34         53 
 31,36         48 
 31,38         48 
 31,4          52 
 31,42         40 
 31,44         40 
 31,46         46 
 31,48         48 
 31,5          43 
 31,52         46 
 31,54         41 
 31,56         40 
 31,58         41 
 31,6          39 
 31,62         46 
 31,64         48 
 31,66         39 
 31,68         41 
 31,7          39 
 31,72         50 
 31,74         42 
 31,76         31 
 31,78         34 
 31,8          44 
 31,82         39 
 31,84         60 
 31,86         46 
 31,88         38 
 31,9          44 
 31,92         47 
 31,94         43 
 31,96         49 
 31,98         44 
 32            30 
 32,02         45 
 32,04         35 
 32,06         42 
 32,08         30 
 32,1          39 
 32,12         38 
 32,14         38 
 32,16         50 
 32,18         49 
 32,2          61 
 32,22         47 
 32,24         51 
 32,26         57 
 32,28         56 
 32,3          61 
 32,32         79 
 32,34         89 
 32,36         81 
 32,38         100 
 32,4          107 
 32,42         95 
 32,44         89 
 32,46         74 
 32,48         93 
 32,5          64 
 32,52         67 
 32,54         60 
 32,56         64 
 32,58         74 
 32,6          61 
 32,62         64 
 32,64         72 
 32,66         80 
 32,68         87 
 32,7          87 
 32,72         92 
 32,74         111 
 32,76         119 
 32,78         160 
 32,8          217 
 32,82         281 
 32,84         349 
 32,86         469 
 32,88         597 
 32,9          848 
 32,92         1059 
 32,94         1144 
 32,96         1287 
 32,98         1174 
 33            1101 
 33,02         895 
 33,04         763 
 33,06         600 
 33,08         462 
 33,1          294 
 33,12         210 
 33,14         162 
 33,16         148 
 33,18         147 
 33,2          149 
 33,22         122 
 33,24         122 
 33,26         107 
 33,28         80 
 33,3          110 
 33,32         89 
 33,34         56 
 33,36         58 
 33,38         43 
 33,4          56 
 33,42         56 
 33,44         38 
 33,46         53 
 33,48         39 
 33,5          60 
 33,52         47 
 33,54         28 
 33,56         42 
 33,58         56 
 33,6          37 
 33,62         32 
 33,64         39 
 33,66         54 
 33,68         50 
 33,7          51 
 33,72         51 
 33,74         45 
 33,76         49 
 33,78         43 
 33,8          71 
 33,82         71 
 33,84         77 
 33,86         63 
 33,88         84 
 33,9          75 
 33,92         93 
 33,94         73 
 33,96         78 
 33,98         49 
 34            68 
 34,02         51 
 34,04         52 
 34,06         52 
 34,08         51 
 34,1          49 
 34,12         53 
 34,14         55 
 34,16         53 
 34,18         63 
 34,2          57 
 34,22         67 
 34,24         52 
 34,26         58 
 34,28         55 
 34,3          44 
 34,32         57 
 34,34         50 
 34,36         58 
 34,38         64 
 34,4          70 
 34,42         61 
 34,44         86 
 34,46         108 
 34,48         115 
 34,5          169 
 34,52         172 
 34,54         236 
 34,56         305 
 34,58         376 
 34,6          496 
 34,62         524 
 34,64         518 
 34,66         504 
 34,68         405 
 34,7          392 
 34,72         307 
 34,74         257 
 34,76         174 
 34,78         118 
 34,8          92 
 34,82         66 
 34,84         54 
 34,86         47 
 34,88         45 
 34,9          54 
 34,92         45 
 34,94         38 
 34,96         36 
 34,98         45 
 35            40 
 35,02         41 
 35,04         41 
 35,06         42 
 35,08         32 
 35,1          32 
 35,12         28 
 35,14         40 
 35,16         38 
 35,18         33 
 35,2          38 
 35,22         34 
 35,24         36 
 35,26         28 
 35,28         42 
 35,3          34 
 35,32         38 
 35,34         32 
 35,36         48 
 35,38         43 
 35,4          40 
 35,42         38 
 35,44         53 
 35,46         34 
 35,48         42 
 35,5          46 
 35,52         41 
 35,54         51 
 35,56         48 
 35,58         36 
 35,6          36 
 35,62         37 
 35,64         48 
 35,66         40 
 35,68         31 
 35,7          36 
 35,72         38 
 35,74         40 
 35,76         41 
 35,78         34 
 35,8          45 
 35,82         42 
 35,84         42 
 35,86         32 
 35,88         45 
 35,9          44 
 35,92         53 
 35,94         45 
 35,96         56 
 35,98         53 
 36            67 
 36,02         85 
 36,04         80 
 36,06         79 
 36,08         79 
 36,1          79 
 36,12         63 
 36,14         52 
 36,16         72 
 36,18         56 
 36,2          60 
 36,22         48 
 36,24         55 
 36,26         46 
 36,28         57 
 36,3          43 
 36,32         59 
 36,34         65 
 36,36         58 
 36,38         67 
 36,4          76 
 36,42         86 
 36,44         113 
 36,46         128 
 36,48         85 
 36,5          102 
 36,52         113 
 36,54         129 
 36,56         113 
 36,58         90 
 36,6          101 
 36,62         83 
 36,64         89 
 36,66         69 
 36,68         67 
 36,7          66 
 36,72         74 
 36,74         47 
 36,76         58 
 36,78         50 
 36,8          51 
 36,82         62 
 36,84         64 
 36,86         68 
 36,88         62 
 36,9          63 
 36,92         64 
 36,94         58 
 36,96         81 
 36,98         71 
 37            82 
 37,02         99 
 37,04         102 
 37,06         135 
 37,08         166 
 37,1          214 
 37,12         250 
 37,14         335 
 37,16         378 
 37,18         390 
 37,2          338 
 37,22         352 
 37,24         270 
 37,26         225 
 37,28         183 
 37,3          175 
 37,32         129 
 37,34         103 
 37,36         73 
 37,38         69 
 37,4          69 
 37,42         61 
 37,44         71 
 37,46         90 
 37,48         65 
 37,5          83 
 37,52         77 
 37,54         81 
 37,56         85 
 37,58         89 
 37,6          77 
 37,62         82 
 37,64         75 
 37,66         96 
 37,68         83 
 37,7          96 
 37,72         109 
 37,74         110 
 37,76         102 
 37,78         92 
 37,8          116 
 37,82         129 
 37,84         111 
 37,86         91 
 37,88         77 
 37,9          78 
 37,92         62 
 37,94         68 
 37,96         61 
 37,98         47 
 38            42 
 38,02         40 
 38,04         44 
 38,06         33 
 38,08         37 
 38,1          28 
 38,12         24 
 38,14         26 
 38,16         34 
 38,18         48 
 38,2          35 
 38,22         31 
 38,24         34 
 38,26         37 
 38,28         31 
 38,3          43 
 38,32         40 
 38,34         43 
 38,36         36 
 38,38         42 
 38,4          45 
 38,42         42 
 38,44         43 
 38,46         53 
 38,48         58 
 38,5          51 
 38,52         52 
 38,54         44 
 38,56         62 
 38,58         60 
 38,6          69 
 38,62         55 
 38,64         53 
 38,66         52 
 38,68         48 
 38,7          50 
 38,72         50 
 38,74         50 
 38,76         49 
 38,78         52 
 38,8          42 
 38,82         40 
 38,84         41 
 38,86         46 
 38,88         51 
 38,9          43 
 38,92         40 
 38,94         37 
 38,96         39 
 38,98         52 
 39            56 
 39,02         55 
 39,04         65 
 39,06         54 
 39,08         74 
 39,1          104 
 39,12         95 
 39,14         136 
 39,16         181 
 39,18         227 
 39,2          283 
 39,22         388 
 39,24         430 
 39,26         508 
 39,28         513 
 39,3          515 
 39,32         481 
 39,34         511 
 39,36         443 
 39,38         438 
 39,4          448 
 39,42         513 
 39,44         598 
 39,46         743 
 39,48         961 
 39,5          1213 
 39,52         1588 
 39,54         1750 
 39,56         1803 
 39,58         1747 
 39,6          1474 
 39,62         1254 
 39,64         1054 
 39,66         842 
 39,68         733 
 39,7          580 
 39,72         401 
 39,74         304 
 39,76         277 
 39,78         240 
 39,8          316 
 39,82         392 
 39,84         546 
 39,86         622 
 39,88         744 
 39,9          854 
 39,92         960 
 39,94         857 
 39,96         782 
 39,98         710 
 40            596 
 40,02         514 
 40,04         433 
 40,06         318 
 40,08         224 
 40,1          151 
 40,12         112 
 40,14         71 
 40,16         60 
 40,18         65 
 40,2          59 
 40,22         45 
 40,24         53 
 40,26         34 
 40,28         42 
 40,3          30 
 40,32         51 
 40,34         38 
 40,36         44 
 40,38         34 
 40,4          35 
 40,42         49 
 40,44         37 
 40,46         34 
 40,48         47 
 40,5          35 
 40,52         37 
 40,54         42 
 40,56         47 
 40,58         34 
 40,6          35 
 40,62         27 
 40,64         44 
 40,66         39 
 40,68         45 
 40,7          35 
 40,72         35 
 40,74         31 
 40,76         42 
 40,78         44 
 40,8          36 
 40,82         46 
 40,84         43 
 40,86         54 
 40,88         39 
 40,9          45 
 40,92         45 
 40,94         61 
 40,96         60 
 40,98         64 
 41            95 
 41,02         101 
 41,04         128 
 41,06         174 
 41,08         208 
 41,1          237 
 41,12         274 
 41,14         247 
 41,16         205 
 41,18         191 
 41,2          190 
 41,22         159 
 41,24         161 
 41,26         141 
 41,28         117 
 41,3          86 
 41,32         67 
 41,34         47 
 41,36         67 
 41,38         52 
 41,4          49 
 41,42         44 
 41,44         48 
 41,46         53 
 41,48         51 
 41,5          53 
 41,52         45 
 41,54         48 
 41,56         53 
 41,58         62 
 41,6          65 
 41,62         70 
 41,64         78 
 41,66         91 
 41,68         133 
 41,7          158 
 41,72         212 
 41,74         297 
 41,76         366 
 41,78         475 
 41,8          483 
 41,82         553 
 41,84         455 
 41,86         451 
 41,88         352 
 41,9          328 
 41,92         276 
 41,94         234 
 41,96         201 
 41,98         152 
 42            96 
 42,02         58 
 42,04         47 
 42,06         41 
 42,08         43 
 42,1          34 
 42,12         35 
 42,14         32 
 42,16         29 
 42,18         27 
 42,2          41 
 42,22         39 
 42,24         30 
 42,26         31 
 42,28         30 
 42,3          35 
 42,32         33 
 42,34         47 
 42,36         40 
 42,38         42 
 42,4          38 
 42,42         31 
 42,44         35 
 42,46         30 
 42,48         29 
 42,5          40 
 42,52         28 
 42,54         36 
 42,56         32 
 42,58         39 
 42,6          31 
 42,62         34 
 42,64         28 
 42,66         27 
 42,68         25 
 42,7          28 
 42,72         26 
 42,74         41 
 42,76         26 
 42,78         23 
 42,8          33 
 42,82         27 
 42,84         34 
 42,86         29 
 42,88         41 
 42,9          38 
 42,92         35 
 42,94         36 
 42,96         26 
 42,98         24 
 43            37 
 43,02         34 
 43,04         40 
 43,06         40 
 43,08         38 
 43,1          30 
 43,12         27 
 43,14         31 
 43,16         36 
 43,18         26 
 43,2          24 
 43,22         25 
 43,24         23 
 43,26         29 
 43,28         30 
 43,3          36 
 43,32         22 
 43,34         26 
 43,36         33 
 43,38         32 
 43,4          36 
 43,42         30 
 43,44         38 
 43,46         31 
 43,48         36 
 43,5          16 
 43,52         35 
 43,54         39 
 43,56         28 
 43,58         32 
 43,6          20 
 43,62         39 
 43,64         31 
 43,66         34 
 43,68         26 
 43,7          25 
 43,72         31 
 43,74         36 
 43,76         40 
 43,78         31 
 43,8          35 
 43,82         37 
 43,84         38 
 43,86         46 
 43,88         34 
 43,9          45 
 43,92         44 
 43,94         39 
 43,96         47 
 43,98         56 
 44            51 
 44,02         57 
 44,04         54 
 44,06         70 
 44,08         70 
 44,1          84 
 44,12         95 
 44,14         97 
 44,16         120 
 44,18         131 
 44,2          152 
 44,22         194 
 44,24         241 
 44,26         293 
 44,28         503 
 44,3          657 
 44,32         928 
 44,34         1183 
 44,36         1384 
 44,38         1481 
 44,4          1497 
 44,42         1361 
 44,44         1142 
 44,46         1083 
 44,48         906 
 44,5          838 
 44,52         674 
 44,54         489 
 44,56         357 
 44,58         260 
 44,6          206 
 44,62         181 
 44,64         164 
 44,66         200 
 44,68         241 
 44,7          263 
 44,72         397 
 44,74         444 
 44,76         554 
 44,78         730 
 44,8          747 
 44,82         779 
 44,84         698 
 44,86         606 
 44,88         503 
 44,9          487 
 44,92         447 
 44,94         368 
 44,96         293 
 44,98         243 
 45            215 
 45,02         164 
 45,04         148 
 45,06         180 
 45,08         185 
 45,1          164 
 45,12         167 
 45,14         144 
 45,16         128 
 45,18         112 
 45,2          89 
 45,22         88 
 45,24         70 
 45,26         70 
 45,28         54 
 45,3          51 
 45,32         41 
 45,34         34 
 45,36         36 
 45,38         33 
 45,4          32 
 45,42         30 
 45,44         34 
 45,46         53 
 45,48         40 
 45,5          33 
 45,52         30 
 45,54         29 
 45,56         39 
 45,58         31 
 45,6          30 
 45,62         32 
 45,64         31 
 45,66         36 
 45,68         32 
 45,7          21 
 45,72         28 
 45,74         44 
 45,76         37 
 45,78         27 
 45,8          45 
 45,82         27 
 45,84         41 
 45,86         31 
 45,88         40 
 45,9          42 
 45,92         33 
 45,94         34 
 45,96         40 
 45,98         42 
 46            45 
 46,02         59 
 46,04         63 
 46,06         74 
 46,08         83 
 46,1          77 
 46,12         123 
 46,14         120 
 46,16         89 
 46,18         88 
 46,2          75 
 46,22         84 
 46,24         80 
 46,26         81 
 46,28         51 
 46,3          52 
 46,32         48 
 46,34         38 
 46,36         36 
 46,38         33 
 46,4          22 
 46,42         27 
 46,44         31 
 46,46         24 
 46,48         33 
 46,5          27 
 46,52         34 
 46,54         24 
 46,56         25 
 46,58         47 
 46,6          36 
 46,62         40 
 46,64         40 
 46,66         48 
 46,68         47 
 46,7          57 
 46,72         66 
 46,74         72 
 46,76         82 
 46,78         88 
 46,8          72 
 46,82         80 
 46,84         68 
 46,86         68 
 46,88         51 
 46,9          52 
 46,92         53 
 46,94         42 
 46,96         34 
 46,98         62 
 47            42 
 47,02         62 
 47,04         87 
 47,06         94 
 47,08         122 
 47,1          127 
 47,12         169 
 47,14         167 
 47,16         148 
 47,18         147 
 47,2          111 
 47,22         120 
 47,24         97 
 47,26         114 
 47,28         88 
 47,3          62 
 47,32         56 
 47,34         34 
 47,36         30 
 47,38         44 
 47,4          36 
 47,42         28 
 47,44         36 
 47,46         33 
 47,48         48 
 47,5          42 
 47,52         47 
 47,54         40 
 47,56         32 
 47,58         45 
 47,6          62 
 47,62         73 
 47,64         69 
 47,66         75 
 47,68         78 
 47,7          79 
 47,72         93 
 47,74         75 
 47,76         82 
 47,78         95 
 47,8          84 
 47,82         95 
 47,84         78 
 47,86         66 
 47,88         73 
 47,9          92 
 47,92         87 
 47,94         87 
 47,96         124 
 47,98         118 
 48            123 
 48,02         142 
 48,04         140 
 48,06         129 
 48,08         131 
 48,1          118 
 48,12         126 
 48,14         120 
 48,16         105 
 48,18         97 
 48,2          111 
 48,22         89 
 48,24         103 
 48,26         84 
 48,28         68 
 48,3          53 
 48,32         52 
 48,34         54 
 48,36         50 
 48,38         49 
 48,4          39 
 48,42         43 
 48,44         43 
 48,46         41 
 48,48         25 
 48,5          21 
 48,52         33 
 48,54         41 
 48,56         31 
 48,58         35 
 48,6          18 
 48,62         41 
 48,64         24 
 48,66         35 
 48,68         30 
 48,7          36 
 48,72         31 
 48,74         26 
 48,76         39 
 48,78         40 
 48,8          42 
 48,82         46 
 48,84         38 
 48,86         55 
 48,88         49 
 48,9          46 
 48,92         66 
 48,94         54 
 48,96         65 
 48,98         74 
 49            86 
 49,02         83 
 49,04         135 
 49,06         142 
 49,08         220 
 49,1          271 
 49,12         396 
 49,14         461 
 49,16         546 
 49,18         605 
 49,2          629 
 49,22         539 
 49,24         486 
 49,26         438 
 49,28         411 
 49,3          480 
 49,32         455 
 49,34         436 
 49,36         438 
 49,38         381 
 49,4          346 
 49,42         318 
 49,44         290 
 49,46         280 
 49,48         201 
 49,5          242 
 49,52         188 
 49,54         185 
 49,56         139 
 49,58         120 
 49,6          104 
 49,62         74 
 49,64         79 
 49,66         59 
 49,68         57 
 49,7          52 
 49,72         53 
 49,74         43 
 49,76         54 
 49,78         41 
 49,8          31 
 49,82         35 
 49,84         47 
 49,86         41 
 49,88         34 
 49,9          32 
 49,92         42 
 49,94         47 
 49,96         38 
 49,98         39 
 50            44 
 50,02         46 
 50,04         43 
 50,06         49 
 50,08         48 
 50,1          54 
 50,12         69 
 50,14         66 
 50,16         67 
 50,18         96 
 50,2          94 
 50,22         91 
 50,24         128 
 50,26         107 
 50,28         130 
 50,3          142 
 50,32         199 
 50,34         211 
 50,36         250 
 50,38         247 
 50,4          325 
 50,42         253 
 50,44         245 
 50,46         236 
 50,48         201 
 50,5          188 
 50,52         180 
 50,54         160 
 50,56         140 
 50,58         117 
 50,6          94 
 50,62         104 
 50,64         65 
 50,66         67 
 50,68         69 
 50,7          88 
 50,72         81 
 50,74         94 
 50,76         138 
 50,78         198 
 50,8          230 
 50,82         267 
 50,84         321 
 50,86         390 
 50,88         462 
 50,9          440 
 50,92         371 
 50,94         342 
 50,96         360 
 50,98         329 
 51            337 
 51,02         320 
 51,04         352 
 51,06         330 
 51,08         306 
 51,1          305 
 51,12         270 
 51,14         238 
 51,16         247 
 51,18         231 
 51,2          240 
 51,22         296 
 51,24         292 
 51,26         325 
 51,28         436 
 51,3          468 
 51,32         524 
 51,34         531 
 51,36         542 
 51,38         513 
 51,4          461 
 51,42         417 
 51,44         369 
 51,46         338 
 51,48         313 
 51,5          296 
 51,52         226 
 51,54         163 
 51,56         129 
 51,58         101 
 51,6          80 
 51,62         46 
 51,64         51 
 51,66         51 
 51,68         47 
 51,7          45 
 51,72         46 
 51,74         43 
 51,76         44 
 51,78         57 
 51,8          56 
 51,82         66 
 51,84         74 
 51,86         101 
 51,88         101 
 51,9          134 
 51,92         120 
 51,94         187 
 51,96         207 
 51,98         234 
 52            252 
 52,02         212 
 52,04         162 
 52,06         179 
 52,08         146 
 52,1          144 
 52,12         160 
 52,14         130 
 52,16         107 
 52,18         99 
 52,2          63 
 52,22         53 
 52,24         48 
 52,26         52 
 52,28         34 
 52,3          53 
 52,32         31 
 52,34         29 
 52,36         42 
 52,38         38 
 52,4          29 
 52,42         32 
 52,44         33 
 52,46         27 
 52,48         28 
 52,5          41 
 52,52         36 
 52,54         36 
 52,56         42 
 52,58         39 
 52,6          34 
 52,62         41 
 52,64         43 
 52,66         39 
 52,68         47 
 52,7          44 
 52,72         45 
 52,74         34 
 52,76         38 
 52,78         55 
 52,8          46 
 52,82         48 
 52,84         47 
 52,86         54 
 52,88         61 
 52,9          79 
 52,92         101 
 52,94         142 
 52,96         160 
 52,98         230 
 53            300 
 53,02         362 
 53,04         365 
 53,06         351 
 53,08         324 
 53,1          271 
 53,12         250 
 53,14         246 
 53,16         275 
 53,18         274 
 53,2          280 
 53,22         325 
 53,24         300 
 53,26         333 
 53,28         351 
 53,3          327 
 53,32         311 
 53,34         279 
 53,36         218 
 53,38         205 
 53,4          199 
 53,42         194 
 53,44         182 
 53,46         162 
 53,48         129 
 53,5          87 
 53,52         69 
 53,54         69 
 53,56         52 
 53,58         64 
 53,6          44 
 53,62         63 
 53,64         52 
 53,66         58 
 53,68         54 
 53,7          64 
 53,72         54 
 53,74         62 
 53,76         79 
 53,78         71 
 53,8          99 
 53,82         101 
 53,84         84 
 53,86         103 
 53,88         101 
 53,9          111 
 53,92         93 
 53,94         95 
 53,96         88 
 53,98         111 
 54            85 
 54,02         92 
 54,04         107 
 54,06         100 
 54,08         99 
 54,1          95 
 54,12         91 
 54,14         68 
 54,16         87 
 54,18         75 
 54,2          70 
 54,22         89 
 54,24         101 
 54,26         106 
 54,28         88 
 54,3          112 
 54,32         118 
 54,34         85 
 54,36         91 
 54,38         82 
 54,4          89 
 54,42         89 
 54,44         74 
 54,46         64 
 54,48         68 
 54,5          65 
 54,52         67 
 54,54         59 
 54,56         59 
 54,58         34 
 54,6          48 
 54,62         53 
 54,64         40 
 54,66         36 
 54,68         51 
 54,7          45 
 54,72         45 
 54,74         49 
 54,76         47 
 54,78         55 
 54,8          49 
 54,82         55 
 54,84         56 
 54,86         72 
 54,88         77 
 54,9          62 
 54,92         87 
 54,94         98 
 54,96         108 
 54,98         110 
 55            136 
 55,02         165 
 55,04         196 
 55,06         221 
 55,08         266 
 55,1          264 
 55,12         286 
 55,14         253 
 55,16         232 
 55,18         226 
 55,2          191 
 55,22         181 
 55,24         179 
 55,26         160 
 55,28         144 
 55,3          130 
 55,32         107 
 55,34         89 
 55,36         86 
 55,38         64 
 55,4          61 
 55,42         56 
 55,44         73 
 55,46         48 
 55,48         72 
 55,5          76 
 55,52         70 
 55,54         76 
 55,56         89 
 55,58         107 
 55,6          108 
 55,62         152 
 55,64         240 
 55,66         291 
 55,68         409 
 55,7          481 
 55,72         610 
 55,74         594 
 55,76         645 
 55,78         630 
 55,8          514 
 55,82         516 
 55,84         484 
 55,86         537 
 55,88         619 
 55,9          699 
 55,92         736 
 55,94         674 
 55,96         545 
 55,98         455 
 56            322 
 56,02         306 
 56,04         295 
 56,06         273 
 56,08         309 
 56,1          249 
 56,12         223 
 56,14         183 
 56,16         109 
 56,18         88 
 56,2          60 
 56,22         67 
 56,24         65 
 56,26         51 
 56,28         37 
 56,3          55 
 56,32         48 
 56,34         36 
 56,36         44 
 56,38         37 
 56,4          37 
 56,42         52 
 56,44         43 
 56,46         51 
 56,48         35 
 56,5          49 
 56,52         57 
 56,54         64 
 56,56         73 
 56,58         76 
 56,6          83 
 56,62         72 
 56,64         85 
 56,66         62 
 56,68         72 
 56,7          56 
 56,72         71 
 56,74         55 
 56,76         78 
 56,78         56 
 56,8          56 
 56,82         42 
 56,84         36 
 56,86         33 
 56,88         54 
 56,9          49 
 56,92         39 
 56,94         55 
 56,96         49 
 56,98         48 
 57            56 
 57,02         59 
 57,04         60 
 57,06         52 
 57,08         54 
 57,1          58 
 57,12         64 
 57,14         71 
 57,16         84 
 57,18         87 
 57,2          110 
 57,22         105 
 57,24         95 
 57,26         111 
 57,28         93 
 57,3          85 
 57,32         106 
 57,34         107 
 57,36         117 
 57,38         117 
 57,4          148 
 57,42         128 
 57,44         158 
 57,46         195 
 57,48         175 
 57,5          229 
 57,52         256 
 57,54         337 
 57,56         279 
 57,58         287 
 57,6          307 
 57,62         372 
 57,64         463 
 57,66         622 
 57,68         853 
 57,7          1164 
 57,72         1401 
 57,74         1805 
 57,76         1911 
 57,78         1995 
 57,8          1794 
 57,82         1624 
 57,84         1286 
 57,86         1195 
 57,88         1125 
 57,9          1057 
 57,92         1076 
 57,94         971 
 57,96         870 
 57,98         667 
 58            468 
 58,02         302 
 58,04         219 
 58,06         181 
 58,08         123 
 58,1          121 
 58,12         90 
 58,14         93 
 58,16         77 
 58,18         100 
 58,2          82 
 58,22         88 
 58,24         90 
 58,26         81 
 58,28         90 
 58,3          96 
 58,32         137 
 58,34         111 
 58,36         146 
 58,38         158 
 58,4          183 
 58,42         249 
 58,44         304 
 58,46         426 
 58,48         553 
 58,5          765 
 58,52         958 
 58,54         1111 
 58,56         1224 
 58,58         1219 
 58,6          1089 
 58,62         882 
 58,64         772 
 58,66         659 
 58,68         638 
 58,7          710 
 58,72         682 
 58,74         633 
 58,76         487 
 58,78         383 
 58,8          296 
 58,82         218 
 58,84         187 
 58,86         143 
 58,88         151 
 58,9          126 
 58,92         154 
 58,94         153 
 58,96         184 
 58,98         217 
 59            289 
 59,02         344 
 59,04         394 
 59,06         414 
 59,08         412 
 59,1          408 
 59,12         309 
 59,14         263 
 59,16         316 
 59,18         328 
 59,2          326 
 59,22         334 
 59,24         311 
 59,26         247 
 59,28         205 
 59,3          145 
 59,32         118 
 59,34         133 
 59,36         107 
 59,38         111 
 59,4          86 
 59,42         83 
 59,44         71 
 59,46         65 
 59,48         41 
 59,5          47 
 59,52         43 
 59,54         38 
 59,56         36 
 59,58         41 
 59,6          28 
 59,62         27 
 59,64         40 
 59,66         40 
 59,68         38 
 59,7          33 
 59,72         48 
 59,74         53 
 59,76         33 
 59,78         40 
 59,8          36 
 59,82         43 
 59,84         46 
 59,86         65 
 59,88         61 
 59,9          59 
 59,92         73 
 59,94         80 
 59,96         123 
 59,98         165 
 60            184 
 60,02         215 
 60,04         266 
 60,06         280 
 60,08         273 
 60,1          268 
 60,12         205 
 60,14         163 
 60,16         153 
 60,18         149 
 60,2          150 
 60,22         143 
 60,24         168 
 60,26         143 
 60,28         112 
 60,3          88 
 60,32         56 
 60,34         58 
 60,36         46 
 60,38         44 
 60,4          40 
 60,42         47 
 60,44         45 
 60,46         50 
 60,48         38 
 60,5          36 
 60,52         46 
 60,54         36 
 60,56         34 
 60,58         43 
 60,6          53 
 60,62         48 
 60,64         60 
 60,66         75 
 60,68         82 
 60,7          92 
 60,72         107 
 60,74         94 
 60,76         93 
 60,78         126 
 60,8          129 
 60,82         81 
 60,84         89 
 60,86         143 
 60,88         147 
 60,9          165 
 60,92         243 
 60,94         277 
 60,96         371 
 60,98         467 
 61            569 
 61,02         678 
 61,04         609 
 61,06         547 
 61,08         464 
 61,1          356 
 61,12         325 
 61,14         306 
 61,16         328 
 61,18         323 
 61,2          337 
 61,22         306 
 61,24         246 
 61,26         183 
 61,28         106 
 61,3          80 
 61,32         52 
 61,34         60 
 61,36         43 
 61,38         50 
 61,4          47 
 61,42         41 
 61,44         43 
 61,46         47 
 61,48         40 
 61,5          37 
 61,52         45 
 61,54         49 
 61,56         45 
 61,58         51 
 61,6          45 
 61,62         34 
 61,64         38 
 61,66         39 
 61,68         32 
 61,7          43 
 61,72         34 
 61,74         32 
 61,76         31 
 61,78         36 
 61,8          25 
 61,82         36 
 61,84         39 
 61,86         31 
 61,88         26 
 61,9          36 
 61,92         34 
 61,94         34 
 61,96         26 
 61,98         32 
 62            33 
 62,02         38 
 62,04         40 
 62,06         35 
 62,08         26 
 62,1          42 
 62,12         40 
 62,14         35 
 62,16         38 
 62,18         53 
 62,2          34 
 62,22         30 
 62,24         37 
 62,26         38 
 62,28         31 
 62,3          40 
 62,32         36 
 62,34         28 
 62,36         37 
 62,38         43 
 62,4          26 
 62,42         38 
 62,44         35 
 62,46         46 
 62,48         39 
 62,5          41 
 62,52         42 
 62,54         43 
 62,56         61 
 62,58         50 
 62,6          55 
 62,62         77 
 62,64         76 
 62,66         71 
 62,68         83 
 62,7          81 
 62,72         77 
 62,74         68 
 62,76         63 
 62,78         58 
 62,8          77 
 62,82         63 
 62,84         63 
 62,86         66 
 62,88         67 
 62,9          39 
 62,92         48 
 62,94         45 
 62,96         45 
 62,98         52 
 63            53 
 63,02         43 
 63,04         50 
 63,06         59 
 63,08         47 
 63,1          63 
 63,12         67 
 63,14         83 
 63,16         80 
 63,18         73 
 63,2          81 
 63,22         110 
 63,24         116 
 63,26         120 
 63,28         121 
 63,3          119 
 63,32         133 
 63,34         101 
 63,36         115 
 63,38         102 
 63,4          117 
 63,42         125 
 63,44         173 
 63,46         159 
 63,48         167 
 63,5          152 
 63,52         142 
 63,54         139 
 63,56         109 
 63,58         120 
 63,6          112 
 63,62         106 
 63,64         98 
 63,66         124 
 63,68         137 
 63,7          135 
 63,72         128 
 63,74         96 
 63,76         97 
 63,78         109 
 63,8          92 
 63,82         87 
 63,84         85 
 63,86         72 
 63,88         89 
 63,9          70 
 63,92         59 
 63,94         79 
 63,96         60 
 63,98         66 
 64            48 
 64,02         53 
 64,04         59 
 64,06         57 
 64,08         43 
 64,1          45 
 64,12         76 
 64,14         62 
 64,16         78 
 64,18         107 
 64,2          91 
 64,22         93 
 64,24         99 
 64,26         125 
 64,28         121 
 64,3          107 
 64,32         118 
 64,34         80 
 64,36         100 
 64,38         70 
 64,4          87 
 64,42         94 
 64,44         81 
 64,46         76 
 64,48         70 
 64,5          84 
 64,52         65 
 64,54         56 
 64,56         48 
 64,58         63 
 64,6          47 
 64,62         56 
 64,64         52 
 64,66         46 
 64,68         57 
 64,7          73 
 64,72         58 
 64,74         69 
 64,76         66 
 64,78         73 
 64,8          113 
 64,82         149 
 64,84         194 
 64,86         252 
 64,88         343 
 64,9          397 
 64,92         453 
 64,94         502 
 64,96         420 
 64,98         396 
 65            350 
 65,02         334 
 65,04         389 
 65,06         388 
 65,08         509 
 65,1          608 
 65,12         634 
 65,14         594 
 65,16         486 
 65,18         404 
 65,2          331 
 65,22         275 
 65,24         249 
 65,26         243 
 65,28         259 
 65,3          229 
 65,32         228 
 65,34         206 
 65,36         198 
 65,38         143 
 65,4          109 
 65,42         85 
 65,44         63 
 65,46         68 
 65,48         60 
 65,5          74 
 65,52         77 
 65,54         94 
 65,56         95 
 65,58         96 
 65,6          102 
 65,62         95 
 65,64         87 
 65,66         78 
 65,68         79 
 65,7          76 
 65,72         77 
 65,74         81 
 65,76         70 
 65,78         70 
 65,8          78 
 65,82         62 
 65,84         71 
 65,86         46 
 65,88         64 
 65,9          49 
 65,92         57 
 65,94         54 
 65,96         67 
 65,98         60 
 66            85 
 66,02         58 
 66,04         73 
 66,06         64 
 66,08         63 
 66,1          48 
 66,12         68 
 66,14         70 
 66,16         70 
 66,18         88 
 66,2          74 
 66,22         69 
 66,24         65 
 66,26         47 
 66,28         40 
 66,3          43 
 66,32         59 
 66,34         47 
 66,36         34 
 66,38         33 
 66,4          30 
 66,42         39 
 66,44         46 
 66,46         37 
 66,48         28 
 66,5          23 
 66,52         26 
 66,54         27 
 66,56         35 
 66,58         31 
 66,6          30 
 66,62         22 
 66,64         34 
 66,66         27 
 66,68         32 
 66,7          25 
 66,72         29 
 66,74         36 
 66,76         31 
 66,78         43 
 66,8          42 
 66,82         45 
 66,84         39 
 66,86         61 
 66,88         60 
 66,9          68 
 66,92         99 
 66,94         121 
 66,96         128 
 66,98         129 
 67            148 
 67,02         139 
 67,04         149 
 67,06         130 
 67,08         104 
 67,1          96 
 67,12         96 
 67,14         130 
 67,16         103 
 67,18         110 
 67,2          107 
 67,22         91 
 67,24         95 
 67,26         74 
 67,28         66 
 67,3          71 
 67,32         63 
 67,34         64 
 67,36         58 
 67,38         66 
 67,4          95 
 67,42         122 
 67,44         129 
 67,46         171 
 67,48         167 
 67,5          190 
 67,52         189 
 67,54         197 
 67,56         168 
 67,58         136 
 67,6          119 
 67,62         104 
 67,64         116 
 67,66         120 
 67,68         107 
 67,7          111 
 67,72         117 
 67,74         106 
 67,76         114 
 67,78         83 
 67,8          63 
 67,82         52 
 67,84         56 
 67,86         43 
 67,88         39 
 67,9          43 
 67,92         33 
 67,94         29 
 67,96         41 
 67,98         37 
 68            42 
 68,02         33 
 68,04         36 
 68,06         33 
 68,08         32 
 68,1          32 
 68,12         31 
 68,14         36 
 68,16         31 
 68,18         33 
 68,2          37 
 68,22         47 
 68,24         57 
 68,26         59 
 68,28         79 
 68,3          102 
 68,32         133 
 68,34         149 
 68,36         169 
 68,38         209 
 68,4          246 
 68,42         226 
 68,44         213 
 68,46         209 
 68,48         145 
 68,5          137 
 68,52         139 
 68,54         142 
 68,56         143 
 68,58         139 
 68,6          164 
 68,62         122 
 68,64         131 
 68,66         94 
 68,68         95 
 68,7          79 
 68,72         56 
 68,74         65 
 68,76         72 
 68,78         62 
 68,8          65 
 68,82         60 
 68,84         55 
 68,86         37 
 68,88         45 
 68,9          58 
 68,92         56 
 68,94         59 
 68,96         50 
 68,98         54 
 69            57 
 69,02         72 
 69,04         65 
 69,06         58 
 69,08         71 
 69,1          77 
 69,12         97 
 69,14         101 
 69,16         109 
 69,18         121 
 69,2          97 
 69,22         81 
 69,24         87 
 69,26         73 
 69,28         83 
 69,3          86 
 69,32         97 
 69,34         72 
 69,36         84 
 69,38         70 
 69,4          69 
 69,42         48 
 69,44         55 
 69,46         31 
 69,48         35 
 69,5          51 
 69,52         43 
 69,54         46 
 69,56         49 
 69,58         45 
 69,6          49 
 69,62         43 
 69,64         68 
 69,66         72 
 69,68         80 
 69,7          76 
 69,72         86 
 69,74         103 
 69,76         95 
 69,78         87 
 69,8          71 
 69,82         68 
 69,84         62 
 69,86         80 
 69,88         65 
 69,9          85 
 69,92         67 
 69,94         77 
 69,96         69 
 69,98         68 
 70            72 
 70,02         60 
 70,04         85 
 70,06         73 
 70,08         97 
 70,1          102 
 70,12         140 
 70,14         183 
 70,16         220 
 70,18         280 
 70,2          261 
 70,22         281 
 70,24         272 
 70,26         219 
 70,28         211 
 70,3          157 
 70,32         166 
 70,34         146 
 70,36         167 
 70,38         152 
 70,4          194 
 70,42         171 
 70,44         179 
 70,46         169 
 70,48         127 
 70,5          130 
 70,52         128 
 70,54         113 
 70,56         129 
 70,58         119 
 70,6          115 
 70,62         112 
 70,64         79 
 70,66         71 
 70,68         57 
 70,7          80 
 70,72         60 
 70,74         69 
 70,76         71 
 70,78         65 
 70,8          65 
 70,82         46 
 70,84         40 
 70,86         45 
 70,88         39 
 70,9          57 
 70,92         32 
 70,94         44 
 70,96         34 
 70,98         53 
 71            50 
 71,02         38 
 71,04         43 
 71,06         56 
 71,08         45 
 71,1          40 
 71,12         48 
 71,14         33 
 71,16         44 
 71,18         61 
 71,2          52 
 71,22         42 
 71,24         47 
 71,26         43 
 71,28         50 
 71,3          50 
 71,32         52 
 71,34         59 
 71,36         63 
 71,38         71 
 71,4          70 
 71,42         72 
 71,44         78 
 71,46         80 
 71,48         81 
 71,5          74 
 71,52         79 
 71,54         78 
 71,56         62 
 71,58         57 
 71,6          69 
 71,62         65 
 71,64         64 
 71,66         67 
 71,68         52 
 71,7          46 
 71,72         52 
 71,74         45 
 71,76         65 
 71,78         55 
 71,8          44 
 71,82         44 
 71,84         38 
 71,86         23 
 71,88         49 
 71,9          37 
 71,92         38 
 71,94         39 
 71,96         26 
 71,98         38 
 72            32 
 72,02         31 
 72,04         38 
 72,06         53 
 72,08         58 
 72,1          67 
 72,12         52 
 72,14         55 
 72,16         58 
 72,18         66 
 72,2          48 
 72,22         41 
 72,24         36 
 72,26         59 
 72,28         52 
 72,3          44 
 72,32         50 
 72,34         45 
 72,36         51 
 72,38         52 
 72,4          49 
 72,42         73 
 72,44         83 
 72,46         104 
 72,48         118 
 72,5          136 
 72,52         172 
 72,54         181 
 72,56         179 
 72,58         138 
 72,6          148 
 72,62         104 
 72,64         102 
 72,66         104 
 72,68         113 
 72,7          114 
 72,72         110 
 72,74         107 
 72,76         133 
 72,78         100 
 72,8          93 
 72,82         107 
 72,84         91 
 72,86         87 
 72,88         106 
 72,9          77 
 72,92         67 
 72,94         74 
 72,96         70 
 72,98         73 
 73            87 
 73,02         97 
 73,04         118 
 73,06         112 
 73,08         134 
 73,1          195 
 73,12         205 
 73,14         281 
 73,16         347 
 73,18         453 
 73,2          586 
 73,22         768 
 73,24         930 
 73,26         1030 
 73,28         1004 
 73,3          887 
 73,32         710 
 73,34         559 
 73,36         411 
 73,38         418 
 73,4          423 
 73,42         437 
 73,44         470 
 73,46         491 
 73,48         518 
 73,5          482 
 73,52         394 
 73,54         306 
 73,56         196 
 73,58         174 
 73,6          115 
 73,62         114 
 73,64         78 
 73,66         61 
 73,68         72 
 73,7          62 
 73,72         49 
 73,74         58 
 73,76         52 
 73,78         46 
 73,8          47 
 73,82         53 
 73,84         37 
 73,86         59 
 73,88         41 
 73,9          41 
 73,92         38 
 73,93999      52 
 73,96         36 
 73,98         44 
 74            33 
 74,02         24 
 74,04         31 
 74,06         29 
 74,08         29 
 74,1          41 
 74,12         31 
 74,14         27 
 74,16         42 
 74,18         36 
 74,2          44 
 74,22         32 
 74,24         22 
 74,26         36 
 74,28         25 
 74,3          31 
 74,32         34 
 74,34         32 
 74,36         26 
 74,38         35 
 74,4          37 
 74,42         26 
 74,43999      39 
 74,46         33 
 74,48         38 
 74,5          28 
 74,52         40 
 74,54         36 
 74,56         21 
 74,58         23 
 74,6          31 
 74,62         40 
 74,64         36 
 74,66         44 
 74,68         33 
 74,7          44 
 74,72         61 
 74,74         39 
 74,76         53 
 74,78         71 
 74,8          84 
 74,82         77 
 74,84         102 
 74,86         99 
 74,88         75 
 74,9          85 
 74,92         75 
 74,93999      68 
 74,96         71 
 74,98         84 
 75            65 
