EC-Lab ASCII FILE
Nb header lines : 3                           
mode	ox/red	error	control changes	Ns changes	counter inc.	Ns	time/s	control/V/mA	Ewe/V	dq/mA.h	<I>/mA	P/W	(Q-Qo)/mA.h	x	Capacity/mA.h
1	0	0	1	1	0	1	14748,41	-0,100000001	4,18800926	0	0	0	0	0	0
1	0	0	1	0	0	1	14758,41	-0,100000001	3,77286673	-0,00027636032827322032	-0,099489719382900595	0,000375361444	-0,00027636032827322032	1,031137541828705E-005	0,00027636032827322032
1	0	0	1	0	0	1	14768,41	-0,100000001	3,42791724	-0,0002777333513978455	-0,099984007713750118	0,000342736894	-0,00055409367967106579	2,0673980175403088E-005	0,00055409367967106579
1	0	0	1	0	0	1	14778,41	-0,100000001	3,10624456	-0,00027773387361359267	-0,09998419571142135	0,000310575357	-0,00083182755328465843	3,1036604417090784E-005	0,00083182755328465843
1	0	0	1	0	0	1	14788,41	-0,100000001	2,81857967	-0,00027773394091841248	-0,099984219941156787	0,000281813496	-0,001109561494203071	4,1399231170011795E-005	0,001109561494203071
1	0	0	1	0	0	1	14798,41	-0,100000001	2,53597522	-0,00027773423144138522	-0,099984324529428237	0,000253557781	-0,0013872957256444562	5,1761868762735533E-005	0,0013872957256444562
1	0	0	1	0	0	1	14808,41	-0,100000001	2,28879166	-0,00027773375322338608	-0,099984152370946458	0,000228842895	-0,0016650294788678422	6,2124488512502746E-005	0,0016650294788678422
1	0	0	1	0	0	1	14818,41	-0,100000001	2,08126807	-0,00027773377718528109	-0,099984160997228774	0,000208093843	-0,0019427632560531232	7,2487109156320486E-005	0,0019427632560531232
1	0	0	1	0	0	1	14828,41	-0,100000001	1,90290248	-0,00027773393822047446	-0,099984218969899098	0,000190260223	-0,0022204971942735978	8,2849735808577805E-005	0,0022204971942735978
1	0	0	1	0	0	1	14838,41	-0,100000001	1,75259912	-0,00027773369353099002	-0,099984130881683622	0,000175232097	-0,0024982308878045878	9,3212353331141478E-005	0,0024982308878045878
1	0	0	1	0	0	1	14848,41	-0,100000001	1,63453531	-0,00027773354253959328	-0,099984076524780147	0,00016342751	-0,0027759644303441811	0,0001035749652200131	0,0027759644303441811
1	0	0	1	0	0	1	14858,41	-0,100000001	1,54727161	-0,00027773342185094954	-0,099984033076867866	0,000154702459	-0,0030536978521951309	0,0001139375726058292	0,0030536978521951309
1	0	0	1	0	0	1	14868,41	-0,100000001	1,4990952	-0,00027773320760867661	-0,099983955949648678	0,000149885469	-0,0033314310598038067	0,000124300171997978	0,0033314310598038067
1	0	0	1	0	0	1	14878,41	-0,100000001	1,47301149	-0,00027773305476167133	-0,099983900924726106	0,000147277431	-0,0036091641145654784	0,00013466276568719957	0,0036091641145654784
1	0	0	1	0	0	1	14888,41	-0,100000001	1,45531058	-0,00027773326251117718	-0,099983975714549133	0,000145507744	-0,003886897377076656	0,0001450253671278345	0,003886897377076656
1	0	0	1	0	0	1	14898,41	-0,100000001	1,44123757	-0,00027773311877581808	-0,099983923969819213	0,000144100588	-0,0041646304958524736	0,00015538796320550992	0,0041646304958524736
1	0	0	1	0	0	1	14908,41	-0,100000001	1,42945611	-0,00027773290979613859	-0,099983848737133683	0,000142922523	-0,0044423634056486125	0,00016575055148587254	0,0044423634056486125
1	0	0	1	0	0	1	14918,41	-0,100000001	1,41874385	-0,00027773344575199814	-0,099984041681245453	0,00014185175	-0,0047200968514006106	0,00017611315976346886	0,0047200968514006106
1	0	0	1	0	0	1	14928,41	-0,100000001	1,40910089	-0,00027773326562386422	-0,099983976835116467	0,00014088751	-0,0049978301170244749	0,00018647576132024237	0,0049978301170244749
1	0	0	1	0	0	1	14938,41	-0,100000001	1,39997351	-0,00027773352063198886	-0,099984068638042445	0,000139975047	-0,005275563637656464	0,00019683837239171184	0,005275563637656464
1	0	0	1	0	0	1	14948,41	-0,100000001	1,39124715	-0,00027773311156324214	-0,099983921373291853	0,00013910234	-0,0055532967492197056	0,00020720096820027635	0,0055532967492197056
1	0	0	1	0	0	1	14958,41	-0,100000001	1,38292181	-0,00027773367448109718	-0,099984124023722112	0,000138270232	-0,0058310304237008026	0,00021756358501206291	0,0058310304237008026
1	0	0	1	0	0	1	14968,41	-0,100000001	1,37503564	-0,00027773363677163917	-0,099984110448317069	0,000137481722	-0,0061087640604724416	0,00022792620041685888	0,0061087640604724416
1	0	0	1	0	0	1	14978,41	-0,100000001	1,36701572	-0,0002777338517109553	-0,099984187826471808	0,000136679955	-0,0063864979121833984	0,00023828882384132973	0,0063864979121833984
1	0	0	1	0	0	1	14988,41	-0,100000001	1,35947323	-0,00027773378982063798	-0,099984165545957312	0,000135925802	-0,0066642317020040358	0,00024865144495658966	0,0066642317020040358
1	0	0	1	0	0	1	14998,41	-0,100000001	1,35181618	-0,00027773394981895885	-0,099984223145353523	0,000135160284	-0,0069419656518229952	0,00025901407204160202	0,0069419656518229952
1	0	0	1	0	0	1	15008,41	-0,100000001	1,34440732	-0,00027773444023107491	-0,09998439969371744	0,000134419752	-0,0072197000920540698	0,00026937671742454976	0,0072197000920540698
1	0	0	1	0	0	1	15018,41	-0,100000001	1,33709395	-0,00027773467695216339	-0,099984484913310323	0,000133688649	-0,0074974347690062336	0,00027973937163987965	0,0074974347690062336
1	0	0	1	0	0	1	15028,41	-0,100000001	1,33004797	-0,00027773471200052237	-0,099984497530719706	0,000132984176	-0,0077751694810067558	0,00029010202716291098	0,0077751694810067558
1	0	0	1	0	0	1	15038,41	-0,100000001	1,32300198	-0,00027773463349168496	-0,099984469267537907	0,000132279645	-0,008052904114498441	0,00030046467975667194	0,008052904114498441
1	0	0	1	0	0	1	15048,41	-0,100000001	1,31798005	-0,00027773477480601933	-0,099984520140698893	0,000131777604	-0,0083306388893044608	0,00031082733762306074	0,0083306388893044608
1	0	0	1	0	0	1	15058,41	-0,100000001	1,31513488	-0,00027773476124223734	-0,099984515257737318	0,000131493129	-0,0086083736505466982	0,00032118999498336666	0,0086083736505466982
1	0	0	1	0	0	1	15068,41	-0,100000001	1,31320632	-0,0002777344930349953	-0,099984418703129011	0,00013130017	-0,0088861081435816934	0,00033155264233649965	0,0088861081435816934
1	0	0	1	0	0	1	15078,41	-0,100000001	1,31120133	-0,00027773485322420794	-0,099984548371247117	0,000131099878	-0,0091638429968059021	0,00034191530312877651	0,0091638429968059021
1	0	0	1	0	0	1	15088,41	-0,100000001	1,30873811	-0,00027773461252409549	-0,099984461719205594	0,00013085347	-0,0094415776093299981	0,00035227795494020851	0,0094415776093299981
1	0	0	1	0	0	1	15098,41	-0,100000001	1,30591202	-0,00027773486152829398	-0,099984551360718144	0,000130571032	-0,0097193124708582912	0,00036264061604232198	0,0097193124708582912
1	0	0	1	0	0	1	15108,41	-0,100000001	1,30255127	-0,0002777344176409145	-0,099984391561259584	0,000130234796	-0,0099970468884992051	0,00037300326058240051	0,0099970468884992051
1	0	0	1	0	0	1	15118,41	-0,100000001	1,29854143	-0,00027773486263222163	-0,099984551758132109	0,000129834079	-0,010274781751131427	0,00038336592172570298	0,010274781751131427
1	0	0	1	0	0	1	15128,41	-0,100000001	1,29388225	-0,00027773474168073802	-0,099984508215597466	0,000129368185	-0,010552516492812163	0,00039372857835614298	0,010552516492812163
1	0	0	1	0	0	1	15138,41	-0,100000001	1,28870749	-0,00027773499954533248	-0,099984601046852608	0,000128850908	-0,010830251492357496	0,00040409124460785766	0,010830251492357496
1	0	0	1	0	0	1	15148,41	-0,100000001	1,28305542	-0,0002777349065732625	-0,099984567576907008	0,000128285741	-0,011107986398930758	0,00041445390739065946	0,011107986398930758
1	0	0	1	0	0	1	15158,41	-0,100000001	1,27725053	-0,00027773490382648179	-0,09998456658806592	0,000127705338	-0,01138572130275724	0,00042481657007097523	0,01138572130275724
1	0	0	1	0	0	1	15168,41	-0,100000001	1,27127385	-0,00027773504455635946	-0,099984617250822502	0,000127107836	-0,0116634563473136	0,00043517923800211187	0,0116634563473136
1	0	0	1	0	0	1	15178,41	-0,100000001	1,26489615	-0,00027773469578102227	-0,09998449169169961	0,000126469997	-0,011941191043094622	0,00044554189291997184	0,011941191043094622
1	0	0	1	0	0	1	15188,41	-0,100000001	1,25861394	-0,000277734934249272	-0,099984577540270541	0,00012584198	-0,012218925977343894	0,00045590455673540275	0,012218925977343894
1	0	0	1	0	0	1	15198,41	-0,100000001	1,25214076	-0,00027773437542965018	-0,09998437636520425	0,000125194507	-0,012496660352773546	0,0004662671997005223	0,012496660352773546
1	0	0	1	0	0	1	15208,41	-0,100000001	1,24580121	-0,00027773430920516448	-0,09998435252438912	0,000124560625	-0,01277439466197871	0,00047662984019471718	0,01277439466197871
1	0	0	1	0	0	1	15218,41	-0,100000001	1,23940444	-0,00027773430744599968	-0,099984351891089779	0,000123921054	-0,013052128969424709	0,00048699248062327526	0,013052128969424709
1	0	0	1	0	0	1	15228,41	-0,100000001	1,23274028	-0,00027773408828013475	-0,099984272991377446	0,000123254635	-0,013329863057704845	0,00049735511287446029	0,013329863057704845
1	0	0	1	0	0	1	15238,41	-0,100000001	1,22626722	-0,00027773410956230429	-0,099984280652958566	0,000122607453	-0,013607597167267149	0,00050771774591971162	0,013607597167267149
1	0	0	1	0	0	1	15248,41	-0,100000001	1,2195648	-0,00027773458161618976	-0,099984450592359398	0,000121937519	-0,013885331748883338	0,00051808039657792813	0,013885331748883338
1	0	0	1	0	0	1	15258,41	-0,100000001	1,21299624	-0,00027773468125445978	-0,099984486462137037	0,000121280806	-0,014163066430137797	0,0005284430509537824	0,014163066430137797
1	0	0	1	0	0	1	15268,41	-0,100000001	1,20614111	-0,00027773482679906819	-0,09998453885819671	0,000120595461	-0,014440801256936864	0,00053880571076010176	0,014440801256936864
1	0	0	1	0	0	1	15278,41	-0,100000001	1,19940066	-0,00027773482959344982	-0,099984539864174106	0,000119921526	-0,014718536086530314	0,0005491683706706832	0,014718536086530314
1	0	0	1	0	0	1	15288,41	-0,100000001	1,19256461	-0,0002777347488229473	-0,099984510786792832	0,000119237986	-0,014996270835353261	0,0005595310275676087	0,014996270835353261
1	0	0	1	0	0	1	15298,41	-0,100000001	1,18563318	-0,00027773448678768342	-0,099984416454096717	0,000118544842	-0,015274005322140947	0,00056989367468764614	0,015274005322140947
1	0	0	1	0	0	1	15308,41	-0,100000001	1,17851079	-0,00027773429160730707	-0,099984346189160371	0,000117832627	-0,015551739613748256	0,00058025631452524134	0,015551739613748256
1	0	0	1	0	0	1	15318,41	-0,100000001	1,17148387	-0,00027773404163991414	-0,099984256200897818	0,000117129945	-0,015829473655388166	0,00059061894503621709	0,015829473655388166
1	0	0	1	0	0	1	15328,41	-0,100000001	1,16420877	-0,00027773424318681165	-0,099984328757781811	0,000116402633	-0,016107207898574979	0,00060098158306717837	0,016107207898574979
1	0	0	1	0	0	1	15338,41	-0,100000001	1,15683806	-0,00027773405114437142	-0,09998425962250249	0,0001156656	-0,01638494194971935	0,00061134421393277811	0,01638494194971935
1	0	0	1	0	0	1	15348,41	-0,100000001	1,14925742	-0,0002777341609783471	-0,099984299162734208	0,0001149077	-0,016662676110697699	0,00062170684889643123	0,016662676110697699
1	0	0	1	0	0	1	15358,41	-0,100000001	1,14152396	-0,00027773424913651411	-0,099984330899674714	0,000114134506	-0,016940410359834214	0,00063206948714938406	0,016940410359834214
1	0	0	1	0	0	1	15368,41	-0,100000001	1,13373327	-0,00027773403642036848	-0,099984254321861363	0,000113355476	-0,017218144396254582	0,00064243211746561139	0,017218144396254582
1	0	0	1	0	0	1	15378,41	-0,100000001	1,12578976	-0,00027773394052725699	-0,099984219800340813	0,000112561211	-0,017495878336781837	0,00065279474420393792	0,017495878336781837
1	0	0	1	0	0	1	15388,41	-0,100000001	1,11746442	-0,00027773417644037139	-0,099984304729063027	0,000111728907	-0,017773612513222208	0,00066315737974449984	0,017773612513222208
1	0	0	1	0	0	1	15398,41	-0,100000001	1,10913897	-0,0002777341565622224	-0,099984297572929306	0,000110896479	-0,018051346669784432	0,00067352001454338125	0,018051346669784432
1	0	0	1	0	0	1	15408,41	-0,100000001	1,10062265	-0,00027773407605704333	-0,099984268591064474	0,000110044952	-0,018329080745841475	0,00068388264633850637	0,018329080745841475
1	0	0	1	0	0	1	15418,41	-0,100000001	1,09187722	-0,000277734658136136	-0,099984478139540378	0,000109170775	-0,018606815403977613	0,00069424529985178496	0,018606815403977613
1	0	0	1	0	0	1	15428,41	-0,100000001	1,08294082	-0,0002777341378289792	-0,099984290828961664	0,000108277069	-0,018884549541806592	0,00070460793395170406	0,018884549541806592
1	0	0	1	0	0	1	15438,41	-0,100000001	1,07371795	-0,00027773431951180099	-0,099984356234778304	0,000107355001	-0,019162283861318394	0,00071497057483045338	0,019162283861318394
1	0	0	1	0	0	1	15448,41	-0,100000001	1,06451416	-0,00027773443535384208	-0,0999843979379136	0,000106434811	-0,019440018296672237	0,00072533322003142502	0,019440018296672237
1	0	0	1	0	0	1	15458,41	-0,100000001	1,05498588	-0,00027773396963129443	-0,099984230277794419	0,000105481951	-0,01971775226630353	0,00073569584785566234	0,01971775226630353
1	0	0	1	0	0	1	15468,41	-0,100000001	1,0455339	-0,00027773412993840045	-0,09998428798835328	0,000104536964	-0,019995486396241933	0,00074605848166117325	0,019995486396241933
1	0	0	1	0	0	1	15478,41	-0,100000001	1,03587186	-0,00027773418225265213	-0,099984306821484109	0,000103570928	-0,020273220578494582	0,00075642111741859917	0,020273220578494582
1	0	0	1	0	0	1	15488,41	-0,100000001	1,02638173	-0,00027773404954580797	-0,099984259047019635	0,00010262202	-0,02055095462804039	0,00076678374822455424	0,02055095462804039
1	0	0	1	0	0	1	15498,41	-0,100000001	1,01710153	-0,00027773428063136006	-0,099984342237819405	0,000101694226	-0,02082868890867175	0,00077714638765262221	0,02082868890867175
1	0	0	1	0	0	1	15508,41	-0,100000001	1,00799334	-0,000277733975176596	-0,099984232274103002	0,000100783443	-0,021106422883848346	0,00078750901568376205	0,021106422883848346
1	0	0	1	0	0	1	15518,41	-0,100000001	0,99953419	-0,00027773375323166448	-0,099984152373926682	9,9937577E-005	-0,02138415663708001	0,00079787163543383808	0,02138415663708001
1	0	0	1	0	0	1	15528,41	-0,100000001	0,991552532	-0,00027773583837226032	-0,099984903024550285	9,91402849E-005	-0,021661892475452269	0,00080823433298331341	0,021661892475452269
1	0	0	1	0	0	1	15538,41	-0,100000001	0,984296501	-0,00027773590762333738	-0,099984927954938304	9,84148137E-005	-0,02193962838307561	0,00081859703311663949	0,02193962838307561
1	0	0	1	0	0	1	15548,41	-0,100000001	0,977689624	-0,00027773573475248285	-0,099984865721429939	9,7754164E-005	-0,02221736411782809	0,00082895972679992141	0,02221736411782809
1	0	0	1	0	0	1	15558,41	-0,100000001	0,971999347	-0,00027773594991573027	-0,099984943180199949	9,71853005E-005	-0,022495100067743821	0,00083932242851123354	0,022495100067743821
1	0	0	1	0	0	1	15568,41	-0,100000001	0,966862857	-0,00027773592471662493	-0,099984934108521907	9,66717198E-005	-0,022772835992460445	0,00084968512928233306	0,022772835992460445
1	0	0	1	0	0	1	15578,41	-0,100000001	0,962089121	-0,00027773553278628323	-0,099984793013597197	9,61942787E-005	-0,023050571525246726	0,00086004781542998451	0,023050571525246726
1	0	0	1	0	0	1	15588,41	-0,100000001	0,958021879	-0,00027773569834522077	-0,099984852614815437	9,57876764E-005	-0,023328307223591946	0,00087041050775486259	0,023328307223591946
1	0	0	1	0	0	1	15598,41	-0,100000001	0,954222023	-0,00027773616416338416	-0,099985020309356288	9,54079078E-005	-0,023606043387755331	0,00088077321746004275	0,023606043387755331
1	0	0	1	0	0	1	15608,41	-0,100000001	0,950880408	-0,00027773606160572832	-0,099984983388599731	9,50737594E-005	-0,023883779449361059	0,00089113592333865882	0,023883779449361059
1	0	0	1	0	0	1	15618,41	-0,100000001	0,947958887	-0,00027773548102627197	-0,099984774379992909	9,47814551E-005	-0,024161514930387331	0,00090149860755507482	0,024161514930387331
1	0	0	1	0	0	1	15628,41	-0,100000001	0,945018232	-0,00027773588341102003	-0,099984919238503987	9,44875719E-005	-0,024439250813798352	0,00091186130678500659	0,024439250813798352
1	0	0	1	0	0	1	15638,41	-0,100000001	0,942650497	-0,00027773556006989546	-0,099984802835697702	9,42507249E-005	-0,024716986373868246	0,0009222239939506464	0,024716986373868246
1	0	0	1	0	0	1	15648,41	-0,100000001	0,940282702	-0,00027773559922724963	-0,099984816932345382	9,40139944E-005	-0,024994721973095494	0,00093258668257729971	0,024994721973095494
1	0	0	1	0	0	1	15658,41	-0,100000001	0,938144088	-0,00027773586615630323	-0,09998491302680585	9,38002559E-005	-0,025272457839251798	0,00094294938116343488	0,025272457839251798
1	0	0	1	0	0	1	15668,41	-0,100000001	0,93621552	-0,00027773556373351152	-0,099984804154599514	9,36073266E-005	-0,025550193402985312	0,00095331206846576934	0,025550193402985312
1	0	0	1	0	0	1	15678,41	-0,100000001	0,934420586	-0,00027773586073724758	-0,099984911075945792	9,34279597E-005	-0,025827929263722557	0,00096367476684971213	0,025827929263722557
1	0	0	1	0	0	1	15688,41	-0,100000001	0,932797492	-0,00027773590741554899	-0,099984927880134502	9,32656912E-005	-0,026105665171138109	0,00097403746697528538	0,026105665171138109
1	0	0	1	0	0	1	15698,41	-0,100000001	0,931155324	-0,00027773601823300122	-0,099984967774417792	9,31015384E-005	-0,02638340118937111	0,00098440017123560666	0,02638340118937111
1	0	0	1	0	0	1	15708,41	-0,100000001	0,929627776	-0,00027773628704498214	-0,099985064546732083	9,29488961E-005	-0,026661137476416093	0,00099476288552566451	0,026661137476416093
1	0	0	1	0	0	1	15718,41	-0,100000001	0,927832842	-0,00027773581847424307	-0,099984895861263987	9,27692672E-005	-0,026938873294890336	0,0010051255823327179	0,026938873294890336
1	0	0	1	0	0	1	15728,41	-0,100000001	0,926247954	-0,00027773566964475645	-0,099984842282648154	9,26107532E-005	-0,027216608964535094	0,0010154882735867434	0,027216608964535094
1	0	0	1	0	0	1	15738,41	-0,100000001	0,92439574	-0,00027773565918041603	-0,099984838515485555	9,24255583E-005	-0,02749434462371551	0,0010258509644503298	0,02749434462371551
1	0	0	1	0	0	1	15748,41	-0,100000001	0,922849059	-0,00027773577226077517	-0,099984879224415347	9,22709514E-005	-0,027772080395976285	0,0010362136595330966	0,027772080395976285
1	0	0	1	0	0	1	15758,41	-0,100000001	0,920996845	-0,0002777360831792984	-0,099984991155085069	9,20858583E-005	-0,028049816479155581	0,0010465763662166514	0,028049816479155581
1	0	0	1	0	0	1	15768,41	-0,100000001	0,919163764	-0,00027773610296224557	-0,099984998276946112	9,19025842E-005	-0,028327552582117827	0,0010569390736383349	0,028327552582117827
1	0	0	1	0	0	1	15778,41	-0,100000001	0,917407036	-0,0002777359669407209	-0,099984949309196646	9,1726899E-005	-0,028605288549058547	0,0010673017759848722	0,028605288549058547
1	0	0	1	0	0	1	15788,41	-0,100000001	0,915535748	-0,00027773586977645754	-0,099984914330061414	9,15397613E-005	-0,028883024418835008	0,0010776644747060803	0,028883024418835008
1	0	0	1	0	0	1	15798,41	-0,100000001	0,913473487	-0,00027773572896420957	-0,09998486363765152	9,13335243E-005	-0,029160760147799213	0,0010880271681733939	0,029160760147799213
1	0	0	1	0	0	1	15808,41	-0,100000001	0,911468506	-0,00027773549386072493	-0,099984779000396032	9,11329771E-005	-0,029438495641659936	0,0010983898528686806	0,029438495641659936
1	0	0	1	0	0	1	15818,41	-0,100000001	0,909368038	-0,00027773565397411584	-0,099984836641217459	9,09230148E-005	-0,029716231295634054	0,0011087525435380131	0,029716231295634054
1	0	0	1	0	0	1	15828,41	-0,100000001	0,907305837	-0,00027773534841131834	-0,099984726638609024	9,07167268E-005	-0,029993966644045376	0,0011191152228063869	0,029993966644045376
1	0	0	1	0	0	1	15838,41	-0,100000001	0,905300856	-0,00027773573640982307	-0,099984866318072422	9,05163834E-005	-0,030271702380455194	0,0011294779165515064	0,030271702380455194
1	0	0	1	0	0	1	15848,41	-0,100000001	0,903124034	-0,00027773575758851235	-0,099984873942400666	9,02987449E-005	-0,030549438138043712	0,0011398406110868317	0,030549438138043712
1	0	0	1	0	0	1	15858,41	-0,100000001	0,900889933	-0,00027773523011224138	-0,099984684050940813	9,00751984E-005	-0,030827173368155955	0,0011502032859413078	0,030827173368155955
1	0	0	1	0	0	1	15868,41	-0,100000001	0,898522139	-0,00027773546297475699	-0,09998476788144745	8,9838526E-005	-0,031104908831130707	0,0011605659694841974	0,031104908831130707
1	0	0	1	0	0	1	15878,41	-0,100000001	0,896459937	-0,00027773553962591619	-0,099984795475865101	8,96323618E-005	-0,031382644370756627	0,0011709286558870448	0,031382644370756627
1	0	0	1	0	0	1	15888,41	-0,100000001	0,894263983	-0,00027773593105127414	-0,099984936388995648	8,94129262E-005	-0,031660380301807898	0,0011812913568944986	0,031660380301807898
1	0	0	1	0	0	1	15898,41	-0,100000001	0,891819835	-0,00027773596847595443	-0,099984949861880717	8,91685631E-005	-0,031938116270283853	0,0011916540592983176	0,031938116270283853
1	0	0	1	0	0	1	15908,41	-0,100000001	0,889547527	-0,0002777356942312585	-0,099984851133788992	8,89412768E-005	-0,03221585196451511	0,0012020167514696981	0,03221585196451511
1	0	0	1	0	0	1	15918,41	-0,100000001	0,887351632	-0,00027773631069353888	-0,099985073060212621	8,87219212E-005	-0,032493588275208653	0,0012123794666421154	0,032493588275208653
1	0	0	1	0	0	1	15928,41	-0,100000001	0,885136604	-0,00027773642491549254	-0,099985114180116442	8,85004847E-005	-0,032771324700124141	0,0012227421860763072	0,032771324700124141
1	0	0	1	0	0	1	15938,41	-0,100000001	0,882787943	-0,00027773606553301216	-0,099984984802421939	8,82655368E-005	-0,033049060765657152	0,0012331048921014554	0,033049060765657152
1	0	0	1	0	0	1	15948,41	-0,100000001	0,880382001	-0,00027773567506132854	-0,099984844232614131	8,80248554E-005	-0,033326796440718483	0,00124346758355758	0,033326796440718483
1	0	0	1	0	0	1	15958,41	-0,100000001	0,878243387	-0,00027773581400803392	-0,099984894253428672	8,78110732E-005	-0,033604532254726515	0,0012538302801979934	0,033604532254726515
1	0	0	1	0	0	1	15968,41	-0,100000001	0,875761032	-0,00027773601633020573	-0,099984967089411405	8,75629412E-005	-0,033882268271056723	0,001264192984387319	0,033882268271056723
1	0	0	1	0	0	1	15978,41	-0,100000001	0,873488724	-0,00027773588380921216	-0,099984919381853133	8,73356985E-005	-0,034160004154865939	0,001274555683632108	0,034160004154865939
1	0	0	1	0	0	1	15988,41	-0,100000001	0,87094909	-0,00027773648040369155	-0,099985134155868326	8,7081964E-005	-0,034437740635269632	0,0012849184051366392	0,034437740635269632
1	0	0	1	0	0	1	15998,41	-0,100000001	0,868581355	-0,00027773635662015939	-0,099985089593796211	8,68451825E-005	-0,034715476991889786	0,0012952811220226402	0,034715476991889786
1	0	0	1	0	0	1	16008,41	-0,100000001	0,866289973	-0,00027773645316685242	-0,099985124350606106	8,66161135E-005	-0,03499321344505664	0,0013056438425109282	0,03499321344505664
1	0	0	1	0	0	1	16018,41	-0,100000001	0,863922179	-0,00027773649524276454	-0,099985139497934669	8,6379383E-005	-0,035270949940299405	0,0013160065645691251	0,035270949940299405
1	0	0	1	0	0	1	16028,41	-0,100000001	0,861478031	-0,0002777361287938224	-0,099985007576313894	8,6134889E-005	-0,035548686069093229	0,0013263692729546194	0,035548686069093229
1	0	0	1	0	0	1	16038,41	-0,100000001	0,859014809	-0,00027773626890530189	-0,099985058016447117	8,58886488E-005	-0,035826422337998528	0,0013367319865678613	0,035826422337998528
1	0	0	1	0	0	1	16048,41	-0,100000001	0,856532454	-0,00027773632542168096	-0,099985078362343846	8,56404658E-005	-0,036104158663420211	0,0013470947022898053	0,036104158663420211
1	0	0	1	0	0	1	16058,41	-0,100000001	0,854069233	-0,00027773628215450381	-0,099985062786159872	8,53941674E-005	-0,036381894945574714	0,0013574574163973926	0,036381894945574714
1	0	0	1	0	0	1	16068,41	-0,100000001	0,851586878	-0,00027773624713677501	-0,099985050179777357	8,51459554E-005	-0,036659631192711488	0,0013678201291984214	0,036659631192711488
1	0	0	1	0	0	1	16078,41	-0,100000001	0,849295497	-0,00027773614157694912	-0,099985012178239578	8,49168209E-005	-0,036937367334288442	0,0013781828380608714	0,036937367334288442
1	0	0	1	0	0	1	16088,41	-0,100000001	0,846660376	-0,00027773576575476266	-0,099984876882250803	8,46532348E-005	-0,0372151031000432	0,0013885455329008901	0,0372151031000432
1	0	0	1	0	0	1	16098,41	-0,100000001	0,844197154	-0,00027773568291548224	-0,099984847060109491	8,44069218E-005	-0,037492838782958682	0,0013989082246500642	0,037492838782958682
1	0	0	1	0	0	1	16108,41	-0,100000001	0,841695726	-0,00027773571249345939	-0,099984857708181402	8,41568253E-005	-0,037770574495452147	0,0014092709175028318	0,037770574495452147
1	0	0	1	0	0	1	16118,41	-0,100000001	0,839175165	-0,00027773553106188774	-0,09998479239281481	8,3904757E-005	-0,038048310026514035	0,0014196336035861443	0,038048310026514035
1	0	0	1	0	0	1	16128,41	-0,100000001	0,83663559	-0,00027773558740690349	-0,099984812677020723	8,36508552E-005	-0,038326045613920941	0,0014299962917717642	0,038326045613920941
1	0	0	1	0	0	1	16138,41	-0,100000001	0,834248722	-0,00027773549260488813	-0,099984778548294784	8,34121747E-005	-0,038603781106525824	0,0014403589764201941	0,038603781106525824
1	0	0	1	0	0	1	16148,41	-0,100000001	0,831632674	-0,00027773549009693997	-0,099984777645433421	8,31506113E-005	-0,038881516596622771	0,001450721660975049	0,038881516596622771
1	0	0	1	0	0	1	16158,41	-0,100000001	0,829093099	-0,00027773540855530237	-0,099984748290443546	8,28966658E-005	-0,039159252005178074	0,0014610843424874755	0,039159252005178074
1	0	0	1	0	0	1	16168,41	-0,100000001	0,826629817	-0,00027773552517799869	-0,09998479027461472	8,26504111E-005	-0,03943698753035607	0,0014714470283512518	0,03943698753035607
1	0	0	1	0	0	1	16178,41	-0,100000001	0,823956549	-0,0002777352678010033	-0,099984697618895283	8,23830487E-005	-0,039714722798157075	0,0014818097046119466	0,039714722798157075
1	0	0	1	0	0	1	16188,41	-0,100000001	0,821493328	-0,00027773537907583846	-0,099984737677836416	8,21367939E-005	-0,039992458177232915	0,0014921723850244547	0,039992458177232915
1	0	0	1	0	0	1	16198,41	-0,100000001	0,818858206	-0,00027773534090651405	-0,09998472393687945	8,18733097E-005	-0,04027019351813943	0,0015025350640128141	0,04027019351813943
1	0	0	1	0	0	1	16208,41	-0,100000001	0,816337705	-0,00027773551691861613	-0,099984787301236966	8,16213505E-005	-0,040547929035058042	0,0015128977495684214	0,040547929035058042
1	0	0	1	0	0	1	16218,41	-0,100000001	0,81368351	-0,00027773580460954045	-0,099984890869970982	8,13560546E-005	-0,040825664839667584	0,0015232604458581642	0,040825664839667584
1	0	0	1	0	0	1	16228,41	-0,100000001	0,811220229	-0,00027773564047780304	-0,099984831782544806	8,11097198E-005	-0,041103400480145389	0,0015336231360239315	0,041103400480145389
1	0	0	1	0	0	1	16238,41	-0,100000001	0,808527887	-0,00027773581006295149	-0,099984892833198976	8,08405748E-005	-0,041381136290208333	0,0015439858325171478	0,041381136290208333
1	0	0	1	0	0	1	16248,41	-0,100000001	0,806083739	-0,00027773548613033363	-0,09998477621745513	8,05961026E-005	-0,041658871776338669	0,0015543485169240032	0,041658871776338669
1	0	0	1	0	0	1	16258,41	-0,100000001	0,803410411	-0,00027773560852516032	-0,09998482027959328	8,03288422E-005	-0,041936607384863827	0,0015647112058975741	0,041936607384863827
1	0	0	1	0	0	1	16268,41	-0,100000001	0,800794423	-0,00027773570513269965	-0,099984855058307866	8,00673151E-005	-0,042214343089996525	0,0015750738984757024	0,042214343089996525
1	0	0	1	0	0	1	16271,23	-0,100000001	0,799916089	-7,819928869770633E-005	-0,099984885182239642	7,99795162E-005	-0,042292542378694234	0,0015779916190770755	0,042292542378694234
1	1	0	0	1	0	2	16271,23	0,100000001	0,812123239	5,488672604163488E-009	0,032932036456914144	2,67448722E-005	-0,042292536890021626	0,001577991414287321	5,488672604163488E-009
1	1	0	0	0	0	2	16281,23	0,100000001	0,833688557	0,00027780791459687885	0,10001085046587262	8,3377905E-005	-0,042014728975424742	0,0015676260274769978	0,00027781340326948298
1	1	0	0	0	0	2	16291,23	0,100000001	0,839837134	0,00027780865371268656	0,1000111165474211	8,39930508E-005	-0,041736920321712058	0,0015572606130892698	0,0005556220569821696
1	1	0	0	0	0	2	16301,23	0,100000001	0,844878137	0,0002778087170004017	0,10001113933099882	8,44972237E-005	-0,041459111604711654	0,0015468951963401923	0,00083343077398257126
1	1	0	0	0	0	2	16311,23	0,100000001	0,849518239	0,00027780867711123491	0,10001112497089862	8,4961277E-005	-0,041181302927600422	0,0015365297810794333	0,0011112394510938062
1	1	0	0	0	0	2	16321,23	0,100000001	0,853986442	0,00027780878518604566	0,10001116387783096	8,54081809E-005	-0,040903494142414374	0,0015261643617862576	0,001389048236279852
1	1	0	0	0	0	2	16331,23	0,100000001	0,858168244	0,00027780886885109875	0,10001119399725042	8,5826432E-005	-0,040625685273563277	0,0015157989393714262	0,0016668571051309507
1	1	0	0	0	0	2	16341,23	0,100000001	0,862216353	0,00027780864757547776	0,10001111433802589	8,62312154E-005	-0,040347876625987802	0,0015054335252126861	0,0019446657527064285
1	1	0	0	0	0	2	16351,23	0,100000001	0,866226256	0,00027780850340508752	0,10001106243668478	8,6632208E-005	-0,040070068122582714	0,001495068116433137	0,0022224742561115162
1	1	0	0	0	0	2	16361,23	0,100000001	0,870121658	0,0002778087363222407	0,10001114628686096	8,70218646E-005	-0,039792259386260474	0,0014847026989631354	0,0025002829924337568
1	1	0	0	0	0	2	16371,23	0,100000001	0,873978794	0,00027780853494463693	0,10001107379092272	8,74075558E-005	-0,03951445085131584	0,0014743372890068035	0,0027780915273783936
1	1	0	0	0	0	2	16381,23	0,100000001	0,877587736	0,00027780898548538486	0,10001123598559394	8,77686325E-005	-0,039236641865830451	0,0014639718622401901	0,0030559005128637779
1	1	0	0	0	0	2	16391,23	0,100000001	0,881425798	0,0002778090053651896	0,10001124314232371	8,81524902E-005	-0,038958832860465261	0,0014536064347318346	0,0033337095182289677
1	1	0	0	0	0	2	16401,23	0,100000001	0,8851493	0,0002778089262218111	0,10001121465070712	8,85248592E-005	-0,03868102393424345	0,001443241010176425	0,0036115184444507789
1	1	0	0	0	0	2	16411,23	0,100000001	0,888681889	0,00027780876836884352	0,10001115782363811	8,88781069E-005	-0,038403215165874605	0,0014328755915107218	0,0038893272128196224
1	1	0	0	0	0	2	16421,23	0,100000001	0,892252624	0,00027780876813001104	0,1000111577376584	8,92352182E-005	-0,038125406397744595	0,0014225101728539298	0,0041671359809496326
1	1	0	0	0	0	2	16431,23	0,100000001	0,895766079	0,00027780868659747978	0,10001112838594678	8,95865742E-005	-0,037847597711147117	0,0014121447572392264	0,0044449446675471123
1	1	0	0	0	0	2	16441,23	0,100000001	0,899260461	0,00027780867217770883	0,10001112319482918	8,99360457E-005	-0,037569789038969408	0,0014017793421625437	0,0047227533397248211
1	1	0	0	0	0	2	16451,23	0,100000001	0,902659357	0,00027780877694570355	0,10001116091130776	9,02760075E-005	-0,037291980262023706	0,0013914139231768261	0,0050005621166705242
1	1	0	0	0	0	2	16461,23	0,100000001	0,906172812	0,00027780880668428208	0,10001117161719614	9,06274072E-005	-0,037014171455339424	0,0013810485030815227	0,0052783709233548058
1	1	0	0	0	0	2	16471,23	0,100000001	0,909571707	0,00027780908457562326	0,10001127165808019	9,096742E-005	-0,036736362370763802	0,0013706830726177195	0,0055561800079304288
1	1	0	0	0	0	2	16481,23	0,100000001	0,912951529	0,00027780904552050762	0,1000112575982384	9,13054319E-005	-0,036458553325243296	0,001360317643611115	0,0058339890534509363
1	1	0	0	0	0	2	16491,23	0,100000001	0,916216731	0,0002778091599096855	0,10001129877834291	9,16320278E-005	-0,036180744165333606	0,0013499522103364966	0,0061117982133606221
1	1	0	0	0	0	2	16501,23	0,100000001	0,91952014	0,00027780925281925334	0,10001133222578776	9,19624363E-005	-0,035902934912514355	0,0013395867735952973	0,0063896074661798758
1	1	0	0	0	0	2	16511,23	0,100000001	0,922785401	0,00027780899587025248	0,10001123972414632	9,22889085E-005	-0,035625125916644102	0,0013292213464412106	0,0066674164620501286
1	1	0	0	0	0	2	16521,23	0,100000001	0,926069677	0,00027780906491188541	0,10001126457913448	9,26173961E-005	-0,035347316851732218	0,0013188559167110878	0,0069452255269620147
1	1	0	0	0	0	2	16531,23	0,100000001	0,929201245	0,00027780908959897024	0,10001127346648512	9,2930597E-005	-0,035069507762133248	0,0013084904860598566	0,0072230346165609843
1	1	0	0	0	0	2	16541,23	0,100000001	0,932390094	0,00027780878228570026	0,10001116283370658	9,32494149E-005	-0,034791698979847546	0,001298125066874897	0,0075008433988466854
1	1	0	0	0	0	2	16551,23	0,100000001	0,935521662	0,00027780910901725293	0,10001128045706698	9,35627177E-005	-0,034513889870830298	0,001287759635499144	0,0077786525078639386
1	1	0	0	0	0	2	16561,23	0,100000001	0,938595951	0,00027780871910850208	0,10001114008991496	9,38700541E-005	-0,034236081151721798	0,0012773942186714102	0,0080564612269724403
1	1	0	0	0	0	2	16571,23	0,100000001	0,941918492	0,00027780859709862205	0,10001109616635762	9,42023034E-005	-0,033958272554623174	0,0012670288063960291	0,0083342698240710618
1	1	0	0	0	0	2	16581,23	0,100000001	0,944897294	0,00027780885586432288	0,10001118932201106	9,45003048E-005	-0,033680463698758848	0,001256663384465752	0,0086120786799353843
1	1	0	0	0	0	2	16591,23	0,100000001	0,947933376	0,00027780889376542637	0,10001120296640848	9,48039597E-005	-0,033402654804993421	0,0012462979611213338	0,0088898875737008115
1	1	0	0	0	0	2	16601,23	0,100000001	0,950912178	0,00027780876737791635	0,1000111574669043	9,51018301E-005	-0,033124846037615507	0,0012359325424926034	0,0091676963410787277
1	1	0	0	0	0	2	16611,23	0,100000001	0,953986466	0,0002778091833016111	0,10001130719943624	9,54094357E-005	-0,032847036854313894	0,0012255671083452006	0,0094455055243803379
1	1	0	0	0	0	2	16621,23	0,100000001	0,956850708	0,00027780891063229904	0,10001120903848272	9,56957956E-005	-0,0325692279436816	0,0012152016843714568	0,0097233144350126374
1	1	0	0	0	0	2	16631,23	0,100000001	0,959829509	0,00027780881123161981	0,10001117325423774	9,59936733E-005	-0,032291419132449978	0,0012048362641064861	0,010001123246244256
1	1	0	0	0	0	2	16641,23	0,100000001	0,962770104	0,00027780903501725859	0,10001125381706869	9,62878476E-005	-0,032013610097432717	0,0011944708354917718	0,010278932281261515
1	1	0	0	0	0	2	16651,23	0,100000001	0,965557992	0,00027780886068898768	0,1000111910588904	9,6566604E-005	-0,031735801236743731	0,00118410541338148	0,010556741141950504
1	1	0	0	0	0	2	16661,23	0,100000001	0,968384027	0,00027780891146221098	0,10001120933725101	9,68492604E-005	-0,031457992325281523	0,0011737399893767709	0,010834550053412714
1	1	0	0	0	0	2	16671,23	0,100000001	0,971210063	0,0002778089715014729	0,10001123095138557	9,71319168E-005	-0,031180183353780045	0,001163374563131916	0,011112359024914186
1	1	0	0	0	0	2	16681,23	0,100000001	0,974246144	0,00027780934588114422	0,10001136572806886	9,74356881E-005	-0,030902374007898906	0,0011530091229184528	0,01139016837079533
1	1	0	0	0	0	2	16691,23	0,100000001	0,977568686	0,0002778087634398705	0,10001115604920781	9,77677773E-005	-0,030624565244459034	0,001142643704436656	0,0116679771342352
1	1	0	0	0	0	2	16701,23	0,100000001	0,981597722	0,00027780890692563523	0,10001120770408371	9,81707708E-005	-0,030346756337533395	0,0011322782806012126	0,011945786041160835
1	1	0	0	0	0	2	16711,23	0,100000001	0,986142278	0,00027780905419877834	0,10001126072241589	9,8625329E-005	-0,030068947283334618	0,0011219128512708102	0,012223595095359613
1	1	0	0	0	0	2	16721,23	0,100000001	0,991756201	0,00027780892246713245	0,10001121329902278	9,91867419E-005	-0,029791138360867488	0,0011115474268554928	0,012501404017826747
1	1	0	0	0	0	2	16731,23	0,100000001	0,998744905	0,0002778087987812857	0,10001116877211742	9,98856485E-005	-0,029513329562086202	0,0011011820070550606	0,01277921281660803
1	1	0	0	0	0	2	16741,23	0,100000001	1,00722313	0,0002778085788823664	0,10001108960850552	0,000100733479	-0,029235520983203834	0,0010908165954593526	0,013057021395490398
1	1	0	0	0	0	2	16751,23	0,100000001	1,01699972	0,0002778077562087112	0,10001079344598605	0,000101710946	-0,028957713226995123	0,001080451214558705	0,01333482915169911
1	1	0	0	0	0	2	16761,23	0,100000001	1,02738726	0,00027780783874914048	0,10001082316054096	0,000102749844	-0,028679905388245984	0,0010700858305783627	0,013612636990448251
1	1	0	0	0	0	2	16771,23	0,100000001	1,03787041	0,00027780828809738157	0,10001098492590971	0,00010379844	-0,028402097100148602	0,0010597204298322334	0,013890445278545634
1	1	0	0	0	0	2	16781,23	0,100000001	1,0483917	0,00027780804912621779	0,10001089889628971	0,000104850595	-0,028124289051022384	0,0010493550380024398	0,01416825332767185
1	1	0	0	0	0	2	16791,23	0,100000001	1,05856931	0,0002778082494110697	0,10001097099883728	0,000105868545	-0,027846480801611315	0,0010389896386997488	0,014446061577082918
1	1	0	0	0	0	2	16801,23	0,100000001	1,06840312	0,00027780847595383722	0,10001105255423456	0,000106852123	-0,027568672325657478	0,0010286242309444427	0,014723870053036755
1	1	0	0	0	0	2	16811,23	0,100000001	1,07802701	0,00027780875253056483	0,10001115212185771	0,000107814725	-0,027290863573126912	0,0010182588128696872	0,015001678805567322
1	1	0	0	0	0	2	16821,23	0,100000001	1,08724988	0,00027780893681529498	0,10001121846436138	0,000108737186	-0,027013054636311616	0,0010078933879190202	0,015279487742382618
1	1	0	0	0	0	2	16831,23	0,100000001	1,09616721	0,00027780870390600627	0,10001113461701642	0,000109628927	-0,02673524593240561	0,00099752797165851213	0,015557296446288621
1	1	0	0	0	0	2	16841,23	0,100000001	1,10493171	0,00027780897577810614	0,10001123249097355	0,000110505585	-0,026457436956627504	0,0009871625452540905	0,015835105422066726
1	1	0	0	0	0	2	16851,23	0,100000001	1,11331439	0,0002778085421456231	0,10001107638327776	0,000111343768	-0,026179628414481878	0,00097679713502907994	0,016112913964212352
1	1	0	0	0	0	2	16861,23	0,100000001	1,12158251	0,0002778083663901521	0,10001101311130744	0,000112170601	-0,025901820048091728	0,00096643173136174208	0,016390722330602502
1	1	0	0	0	0	2	16871,23	0,100000001	1,12952602	0,00027780874116470419	0,10001114803014782	0,000112965194	-0,025624011306927024	0,00095606631371106202	0,016668531071767206
1	1	0	0	0	0	2	16881,23	0,100000001	1,13737392	0,00027780881316794291	0,10001117395131408	0,000113750102	-0,025346202493759082	0,0009457008933738441	0,016946339884935152
1	1	0	0	0	0	2	16891,23	0,100000001	1,14512646	0,00027780883539219699	0,10001118195204565	0,00011452545	-0,025068393658366883	0,00093533547220740954	0,017224148720327347
1	1	0	0	0	0	2	16901,23	0,100000001	1,15257347	0,000277808992229816	0,10001123841358917	0,000115270297	-0,024790584666137066	0,00092497004518915238	0,017501957712557165
1	1	0	0	0	0	2	16911,23	0,100000001	1,1600014	0,00027780893032997846	0,10001121612964739	0,000116013151	-0,024512775735807088	0,0009146046204804617	0,017779766642887142
1	1	0	0	0	0	2	16921,23	0,100000001	1,16725755	0,00027780916851965917	0,10001130187793349	0,000116738949	-0,02423496656728743	0,00090423918688459341	0,018057575811406803
1	1	0	0	0	0	2	16931,23	0,100000001	1,17460907	0,00027780928802531629	0,10001134489997056	0,000117474236	-0,023957157279262112	0,00089387374882980877	0,018335385099432118
1	1	0	0	0	0	2	16941,23	0,100000001	1,18175054	0,00027780881638162669	0,10001117510824026	0,000118188262	-0,023679348462880486	0,00088350832837268403	0,018613193915813744
1	1	0	0	0	0	2	16951,23	0,100000001	1,18881559	0,0002778085147593584	0,10001106652422237	0,000118894714	-0,02340153994812113	0,00087314291916949171	0,018891002430573101
1	1	0	0	0	0	2	16961,23	0,100000001	1,19595718	0,00027780864131202301	0,10001111208318218	0,000119609009	-0,023123731306809107	0,00086277750524444941	0,019168811071885123
1	1	0	0	0	0	2	16971,23	0,100000001	1,20309865	0,0002778088038853473	0,10001117060957962	0,000120323304	-0,02284592250292376	0,00085241208525357773	0,01944661987577047
1	1	0	0	0	0	2	16981,23	0,100000001	1,2102592	0,00027780849468790826	0,10001105929850021	0,000121039302	-0,02256811400823585	0,00084204667679927808	0,019724428370458381
1	1	0	0	0	0	2	16991,23	0,100000001	1,21743894	0,00027780875845460422	0,10001115425451194	0,000121757475	-0,022290305249781245	0,00083168125850348851	0,020002237128912986
1	1	0	0	0	0	2	17001,23	0,100000001	1,22463775	0,0002778088378057712	0,10001118282093237	0,000122477475	-0,022012496411975475	0,00082131583724700019	0,020280045966718758
1	1	0	0	0	0	2	17011,23	0,100000001	1,23176014	0,00027780921883342995	0,10001131999089117	0,000123189951	-0,021734687193142042	0,00081095040177385766	0,020557855185552189
1	1	0	0	0	0	2	17021,23	0,100000001	1,23895884	0,00027780898465381725	0,1000112356862296	0,000123909806	-0,021456878208488224	0,00080058497503827123	0,020835664170206006
1	1	0	0	0	0	2	17031,23	0,100000001	1,24631047	0,00027780931263996493	0,10001135376124419	0,000124645201	-0,021179068895848259	0,00079021953606508083	0,021113473482845971
1	1	0	0	0	0	2	17041,23	0,100000001	1,25352824	0,00027780884878958262	0,10001118677510454	0,000125366845	-0,020901260047058678	0,00077985411439877184	0,021391282331635552
1	1	0	0	0	0	2	17051,23	0,100000001	1,26086068	0,00027780865856342845	0,10001111829368819	0,000126100087	-0,020623451388495251	0,00076948869983005632	0,021669090990198979
1	1	0	0	0	0	2	17061,23	0,100000001	1,26817405	0,00027780874909005235	0,1000111508832732	0,000126831554	-0,0203456426394052	0,00075912328188367078	0,02194689973928903
1	1	0	0	0	0	2	17071,23	0,100000001	1,27581203	0,00027780864758003088	0,10001111433966502	0,000127595384	-0,020067833991825168	0,00074875786772476058	0,022224708386869062
1	1	0	0	0	0	2	17081,23	0,100000001	1,28308725	0,00027780849918764499	0,10001106091840547	0,000128322921	-0,019790025492637523	0,00073839245910256986	0,022502516886056707
1	1	0	0	0	0	2	17091,23	0,100000001	1,29051518	0,00027780884820967907	0,10001118656633926	0,000129065957	-0,019512216644427843	0,00072802703745789773	0,022780325734266387
1	1	0	0	0	0	2	17101,23	0,100000001	1,29805756	0,00027780867454244029	0,10001112404613253	0,000129820197	-0,019234407969885402	0,00071766162229298381	0,023058134408808829
1	1	0	0	0	0	2	17111,23	0,100000001	1,3055619	0,00027780835387441846	0,1000110086056433	0,000130570566	-0,018956599616010986	0,0007072962190926249	0,023335942762683245
1	1	0	0	0	0	2	17121,23	0,100000001	1,31310439	0,00027780867862204707	0,10001112551479099	0,000131325054	-0,018678790937388938	0,00069693080377549542	0,023613751441305293
1	1	0	0	0	0	2	17131,23	0,100000001	1,32083786	0,00027780865088022416	0,10001111552773462	0,000132098474	-0,018400982286508714	0,00068656538949345062	0,02389156009218552
1	1	0	0	0	0	2	17141,23	0,100000001	1,32841849	0,00027780874996549552	0,10001115119843274	0,000132856658	-0,018123173536543216	0,00067619997151440102	0,024169368842151014
1	1	0	0	0	0	2	17151,23	0,100000001	1,33615196	0,00027780881632905866	0,10001117508931578	0,000133630121	-0,017845364720214157	0,00066583455105923776	0,024447177658480074
1	1	0	0	0	0	2	17161,23	0,100000001	1,34386635	0,00027780901801917286	0,10001124769775774	0,000134401751	-0,017567555702194986	0,00065546912307874509	0,024724986676499245
1	1	0	0	0	0	2	17171,23	0,100000001	1,35156155	0,00027780892419194182	0,10001121391995418	0,000135171314	-0,017289746778003043	0,00064510369859907264	0,02500279560069119
1	1	0	0	0	0	2	17181,23	0,100000001	1,35927594	0,00027780877842009069	0,10001116144208712	0,00013594277	-0,017011937999582954	0,00063473827955834394	0,02528060437911128
1	1	0	0	0	0	2	17191,23	0,100000001	1,36658919	0,00027780861241163478	0,10001110167904229	0,000136674091	-0,016734129387171315	0,00062437286671161382	0,025558412991522915
1	1	0	0	0	0	2	17201,23	0,100000001	1,37092376	0,00027780877075882422	0,10001115868403117	0,00013710768	-0,01645632061641249	0,00061400744795673715	0,025836221762281741
1	1	0	0	0	0	2	17211,23	0,100000001	1,37014091	0,0002778089300091896	0,10001121601416339	0,000137029463	-0,016178511686403302	0,00060364202326001549	0,026114030692290928
1	1	0	0	0	0	2	17221,23	0,100000001	1,36819315	0,00027780893845152525	0,10001121905340426	0,000136834671	-0,015900702747951776	0,00059327659824829875	0,026391839630742454
1	1	0	0	0	0	2	17231,23	0,100000001	1,36714303	0,00027780880079790947	0,10001116949810198	0,000136729577	-0,015622893947153866	0,00058291117837262349	0,026669648431540362
1	1	0	0	0	0	2	17241,23	0,100000001	1,36706662	0,00027780905446410179	0,10001126081793232	0,000136722054	-0,015345084892689763	0,00057254574903232154	0,026947457486004464
1	1	0	0	0	0	2	17251,23	0,100000001	1,36798322	0,00027780902250111101	0,1000112493112555	0,000136813716	-0,015067275870188653	0,00056218032088460179	0,027225266508505574
1	1	0	0	0	0	2	17261,23	0,100000001	1,36933887	0,0002778088603048689	0,10001119092060765	0,000136949209	-0,014789467009883786	0,00055181489878864198	0,027503075368810445
1	1	0	0	0	0	2	17271,23	0,100000001	1,37151575	0,00027780877431647645	0,10001115996478597	0,000137166877	-0,014511658235567309	0,00054144947990102458	0,027780884143126922
1	1	0	0	0	0	2	17281,23	0,100000001	1,37416995	0,00027780892840607299	0,10001121543704142	0,000137432406	-0,014233849307161237	0,00053108405526411718	0,028058693071532995
1	1	0	0	0	0	2	17291,23	0,100000001	1,37772155	0,00027780880029540922	0,10001116931720189	0,000137787545	-0,013956040506865826	0,00052071863540719091	0,028336501871828403
1	1	0	0	0	0	2	17301,23	0,100000001	1,38203704	0,00027780874599930314	0,10001114977060347	0,000138219111	-0,013678231760866525	0,00051035321757612538	0,028614310617827706
1	1	0	0	0	0	2	17311,23	0,100000001	1,38742173	0,00027780884188496403	0,10001118428944181	0,000138757692	-0,01340042291898156	0,00049998779616743693	0,028892119459712672
1	1	0	0	0	0	2	17321,23	0,100000001	1,39378035	0,00027780900161051088	0,10001124179063938	0,000139393698	-0,01312261391737105	0,00048962236879917357	0,029169928461323181
1	1	0	0	0	0	2	17331,23	0,100000001	1,40130377	0,0002778093327474263	0,10001136099993037	0,000140146294	-0,012844804584623624	0,00047925692907574669	0,029447737794070611
1	1	0	0	0	0	2	17341,23	0,100000001	1,40951455	0,00027780898207798598	0,10001123475893034	0,000140967284	-0,012566995602545638	0,0004688915024362681	0,029725546776148595
1	1	0	0	0	0	2	17351,23	0,100000001	1,4184128	0,0002778087230796615	0,10001114151953238	0,00014185709	-0,012289186879465976	0,00045852608546036518	0,030003355499228256
1	1	0	0	0	0	2	17361,23	0,100000001	1,42813218	0,00027780860638990995	0,10001109951122133	0,000142829071	-0,012011378273076067	0,00044816067283831386	0,03028116410561817
1	1	0	0	0	0	2	17371,23	0,100000001	1,43840516	0,0002778086753711105	0,10001112434445379	0,000143856523	-0,011733569597704955	0,00043779525764248115	0,03055897278098928
1	1	0	0	0	0	2	17381,23	0,100000001	1,44982398	0,00027780863992911245	0,10001111158533437	0,000144998514	-0,011455760957775843	0,00042742984376903699	0,030836781420918394
1	1	0	0	0	0	2	17391,23	0,100000001	1,46267486	0,00027780819947024186	0,10001095302013904	0,000146283506	-0,011177952758305603	0,00041706444632970554	0,03111458962038864
1	1	0	0	0	0	2	17401,23	0,100000001	1,47825623	0,00027780817387542787	0,10001094380600589	0,000147841798	-0,010900144584430174	0,00040669904984535104	0,031392397794264064
1	1	0	0	0	0	2	17411,23	0,100000001	1,49994802	0,00027780838812763491	0,10001102093680136	0,000150011329	-0,010622336196302539	0,00039633364536695859	0,031670206182391699
1	1	0	0	0	0	2	17421,23	0,100000001	1,54193771	0,00027780819379041594	0,10001095097540168	0,000154210662	-0,010344528002512125	0,00038596824813954918	0,031948014376182118
1	1	0	0	0	0	2	17431,23	0,100000001	1,69171822	0,0002778082839834193	0,10001098344488328	0,000169190404	-0,010066719718528706	0,00037560284754691744	0,032225822660165536
1	1	0	0	0	0	2	17441,23	0,100000001	1,93303967	0,0002778085013702512	0,10001106170414371	0,000193325352	-0,0097889112171584538	0,00036523743884329069	0,032503631161535782
1	1	0	0	0	0	2	17451,23	0,100000001	2,15026331	0,00027780880919636957	0,10001117252154765	0,000215050357	-0,0095111024079620851	0,00035487201865425766	0,032781439970732147
1	1	0	0	0	0	2	17461,23	0,100000001	2,33312249	0,0002778094073128369	0,1000113878434785	0,000233338826	-0,009233293000649248	0,00034450657614869498	0,033059249378044992
1	1	0	0	0	0	2	17471,23	0,100000001	2,48897529	0,00027780947649147773	0,1000114127477895	0,000248925935	-0,008955483524157769	0,00033414113106198419	0,033337058854536467
1	1	0	0	0	0	2	17481,23	0,100000001	2,62584758	0,0002778093995588521	0,10001138505204394	0,00026261466	-0,0086776741245989184	0,00032377568884573325	0,033614868254095322
1	1	0	0	0	0	2	17491,23	0,100000001	2,74778748	0,0002778093901073767	0,10001138164951275	0,000274810009	-0,0083998647344915405	0,00031341024698212941	0,033892677644202694
1	1	0	0	0	0	2	17501,23	0,100000001	2,85662866	0,00027780908223655488	0,10001127081601557	0,000285695074	-0,0081220556522549862	0,00030304481660559994	0,034170486726439251
1	1	0	0	0	0	2	17511,23	0,100000001	2,95454717	0,00027780904354568986	0,10001125688730398	0,000295487989	-0,0078442466087092954	0,00029267938767267866	0,034448295769984941
1	1	0	0	0	0	2	17521,23	0,100000001	3,04301405	0,0002778094452391896	0,10001140149696565	0,000304336107	-0,0075664371634701056	0,0002823139437520328	0,034726105215224128
1	1	0	0	0	0	2	17531,23	0,100000001	3,12239146	0,00027780968080833555	0,10001148630185922	0,00031227502	-0,0072886274826617702	0,00027194849104198538	0,035003914896032467
1	1	0	0	0	0	2	17541,23	0,100000001	3,19386363	0,00027780942173674704	0,10001139303608622	0,000319422747	-0,007010818060925024	0,00026158304799824733	0,035281724317769216
1	1	0	0	0	0	2	17551,23	0,100000001	3,25678134	0,00027780893189873958	0,10001121669440141	0,000325714675	-0,0067330091290262848	0,00025121762323102384	0,035559533249667949
1	1	0	0	0	0	2	17561,23	0,100000001	3,31118274	0,00027780900902011328	0,10001124445809627	0,000331155519	-0,0064552001200061709	0,00024085219558629824	0,035837342258688064
1	1	0	0	0	0	2	17571,23	0,100000001	3,3581562	0,00027780946013828122	0,10001140686063869	0,000335853925	-0,0061773906598678899	0,00023048675110974726	0,036115151718826342
1	1	0	0	0	0	2	17581,23	0,100000001	3,39898109	0,00027780917713501386	0,1000113049794612	0,000339936523	-0,0058995814827328768	0,00022012131719242867	0,036392960895961357
1	1	0	0	0	0	2	17591,23	0,100000001	3,43510866	0,00027780910672123235	0,10001127963049955	0,000343549618	-0,0056217723760116442	0,00020975588590234298	0,036670770002682586
1	1	0	0	0	0	2	17601,23	0,100000001	3,46821928	0,00027780972569973936	0,10001150246276477	0,000346861809	-0,0053439626503119046	0,00019939043151733693	0,03694857972838233
1	1	0	0	0	0	2	17611,23	0,100000001	3,49842739	0,00027780980349787408	0,10001153047009362	0,000349883077	-0,0050661528468140314	0,00018902497422957792	0,037226389531880205
1	1	0	0	0	0	2	17621,23	0,100000001	3,52645874	0,00027780963831105165	0,10001147100283682	0,000352686329	-0,0047883432085029792	0,00017865952310516128	0,037504199170191258
1	1	0	0	0	0	2	17631,23	0,100000001	3,5525806	0,00027780951147609286	0,1000114253422511	0,00035529866	-0,0045105336970268864	0,00016829407671312752	0,037782008681667354
1	1	0	0	0	0	2	17641,23	0,100000001	3,57748032	0,00027780937399797974	0,10001137585012976	0,000357788726	-0,0042327243230289069	0,00015792863545058701	0,038059818055665338
1	1	0	0	0	0	2	17651,23	0,100000001	3,60121536	0,00027780952616242896	0,10001143062933218	0,000360162696	-0,0039549147968664774	0,00014756318851058627	0,038337627581827763
1	1	0	0	0	0	2	17661,23	0,100000001	3,62508392	0,00027780925088913907	0,10001133153094659	0,000362549472	-0,0036771055459773389	0,00013719775184140213	0,038615436832716902
1	1	0	0	0	0	2	17671,23	0,100000001	3,64914346	0,00027780943264895014	0,10001139696447939	0,000364955922	-0,0033992961133283885	0,00012683230839051507	0,038893246265365856
1	1	0	0	0	0	2	17681,23	0,100000001	3,67385244	0,00027780899186722106	0,10001123828305501	0,000367426546	-0,0031214871214611674	0,00011646688138578691	0,039171055257233069
1	1	0	0	0	0	2	17691,23	0,100000001	3,69919133	0,00027780910528782346	0,10001127911447235	0,00036996085	-0,002843678016173344	0,0001061014501491836	0,039448864362520896
1	1	0	0	0	0	2	17701,23	0,100000001	3,72512221	0,00027780936633091837	0,10001137308998765	0,000372554583	-0,0025658686498424256	9,573600917271145E-005	0,039726673728851814
1	1	0	0	0	0	2	17711,23	0,100000001	3,75126314	0,0002778091449638208	0,10001129339783157	0,000375168689	-0,0022880595048786048	8,5370576455743347E-005	0,040004482873815642
1	1	0	0	0	0	2	17721,23	0,100000001	3,77728939	0,00027780924313515427	0,10001132873951205	0,000377771736	-0,0020102502617434506	7,5005140075870784E-005	0,04028229211695079
1	1	0	0	0	0	2	17731,23	0,100000001	3,802953	0,00027780949848641952	0,10001142066596864	0,000380338723	-0,001732440763257031	6,46396941684992E-005	0,040560101615437216
1	1	0	0	0	0	2	17741,23	0,100000001	3,82817745	0,00027780929425358771	0,10001134714214832	0,000382861181	-0,0014546314690034435	5,4274255881329165E-005	0,04083791090969081
1	1	0	0	0	0	2	17751,23	0,100000001	3,85267615	0,00027780904566662179	0,1000112576508395	0,000385310996	-0,0011768224233368214	4,390882686927305E-005	0,041115719955357427
1	1	0	0	0	0	2	17761,23	0,100000001	3,87677383	0,00027780919664270342	0,10001131200222954	0,000387721229	-0,00089901322669411802	3,3543392224096339E-005	0,041393529152000134
1	1	0	0	0	0	2	17771,23	0,100000001	3,90029883	0,000277809390089992	0,10001138164325427	0,000390074274	-0,00062120383660412608	2,3177950361141213E-005	0,041671338542090125
1	1	0	0	0	0	2	17781,23	0,100000001	3,92336559	0,00027780952511272496	0,10001143025143872	0,000392381393	-0,00034339431149140115	1,2812503460306371E-005	0,041949148067202854
1	1	0	0	0	0	2	17791,23	0,100000001	3,94584012	0,00027780943706921405	0,10001139855577442	0,000394628994	-6,5584874422187098E-005	2,4470598444932976E-006	0,042226957504272064
1	1	0	0	0	0	2	17801,23	0,100000001	3,96825767	0,00027780941775979264	0,10001139160438262	0,000396870979	0,00021222454333760554	-7,9183830508593024E-006	0,042504766922031859
1	1	0	0	0	0	2	17811,23	0,100000001	3,990484	0,00027780924818126694	0,10001133055611262	0,000399093609	0,00049003379151887251	-1,8283819619009107E-005	0,042782576170213126
1	1	0	0	0	0	2	17821,23	0,100000001	4,0123477	0,00027780954526944288	0,10001143750785726	0,000401280675	0,00076784333678831539	-2,8649267271918192E-005	0,043060385715482566
1	1	0	0	0	0	2	17831,23	0,100000001	4,03449821	0,00027780953396649821	0,10001143343879714	0,000403495942	0,0010456528707548136	-3,9014714503099219E-005	0,043338195249449069
1	1	0	0	0	0	2	17841,23	0,100000001	4,05678177	0,00027780917526450426	0,10001130430607774	0,000405724044	0,0013234620460193178	-4,9380148350626566E-005	0,043616004424713568
1	1	0	0	0	0	2	17851,23	0,100000001	4,07946634	0,00027780935128861002	0,10001136767475658	0,000407993008	0,0016012713973079277	-5,9745588765849971E-005	0,043893813776002182
1	1	0	0	0	0	2	17861,23	0,100000001	4,10226583	0,00027780926224672138	0,10001133561967627	0,000410273089	0,001879080659554649	-7,0111025858800794E-005	0,044171623038248902
1	1	0	0	0	0	2	17871,23	0,100000001	4,12498856	0,00027780878467940618	0,10001116369544074	0,000412544905	0,0021568894442340554	-8,0476445133072986E-005	0,044449431822928314
1	1	0	0	0	0	2	17881,23	0,100000001	4,14694786	0,00027780861523085171	0,10001110269396038	0,000414740818	0,0024346980594649069	-9,0841858084991782E-005	0,044727240438159162
1	1	0	0	0	0	2	17891,23	0,100000001	4,16837215	0,00027780890915418659	0,10001120850636224	0,000416883937	0,0027125069686190934	-0,00010120728200358538	0,04500504934731335
1	1	0	0	0	0	2	17901,23	0,100000001	4,18880415	0,00027780879031494256	0,10001116572423386	0,0004189272	0,0029903157589340358	-0,00011157270148812702	0,045282858137628294
1	1	0	0	0	0	2	17907,37	0,100000001	4,20000076	0,00017049162346455789	0,10001138209251459	0,000420047872	0,0031608073823985933	-0,00011793397318801539	0,045453349761092851