EC-Lab ASCII FILE
Nb header lines : 3                           
mode	ox/red	error	control changes	Ns changes	counter inc.	Ns	time/s	control/V/mA	Ewe/V	dq/mA.h	<I>/mA	P/W	(Q-Qo)/mA.h	x	Capacity/mA.h
1	0	0	1	1	0	1	30278,98	-0,100000001	4,18823862	0	0	0	0	0	0
1	0	0	1	0	0	1	30288,98	-0,100000001	3,78751254	-0,00027636458699754278	-0,099491252523675238	0,000376824377	-0,00027636458699754278	1,0311534317017437E-005	0,00027636458699754278
1	0	0	1	0	0	1	30298,98	-0,100000001	3,4508884	-0,00027773796239909197	-0,099985667674218931	0,000345039385	-0,00055410254939663475	2,0674311116789539E-005	0,00055410254939663475
1	0	0	1	0	0	1	30308,98	-0,100000001	3,12694335	-0,00027773786003763475	-0,099985630824093888	0,000312649412	-0,00083184040943426957	3,1037084097318048E-005	0,00083184040943426957
1	0	0	1	0	0	1	30318,98	-0,100000001	2,82472825	-0,000277738303926256	-0,099985790623999462	0,00028243268	-0,0011095787133605256	4,1399873639927834E-005	0,0011095787133605256
1	0	0	1	0	0	1	30328,98	-0,100000001	2,52241778	-0,00027773815925295152	-0,099985738541609216	0,000252205791	-0,0013873168726134771	5,1762657784582106E-005	0,0013873168726134771
1	0	0	1	0	0	1	30338,98	-0,100000001	2,25904179	-0,00027773834548145533	-0,099985805583871411	0,000225872107	-0,0016650552180949325	6,2125448877672243E-005	0,0016650552180949325
1	0	0	1	0	0	1	30348,98	-0,100000001	2,0425055	-0,00027773880993285114	-0,09998597278637591	0,000204221898	-0,0019427940280277834	7,2488257300068416E-005	0,0019427940280277834
1	0	0	1	0	0	1	30358,98	-0,100000001	1,86035907	-0,0002777384673890968	-0,099985849470622874	0,00018600958	-0,00222053249541688	8,2851052941696563E-005	0,00222053249541688
1	0	0	1	0	0	1	30368,98	-0,100000001	1,71227074	-0,00027773827444637814	-0,099985780011243328	0,00017120273	-0,0024982707698632582	9,3213841384372454E-005	0,0024982707698632582
1	0	0	1	0	0	1	30378,98	-0,100000001	1,59875154	-0,00027773831015990842	-0,099985792868114381	0,00015985244	-0,0027760090800231664	0,00010357663115956818	0,0027760090800231664
1	0	0	1	0	0	1	30388,98	-0,100000001	1,5245105	-0,00027773823000076742	-0,099985764010823258	0,000152429348	-0,0030537473100239341	0,00011393941794391861	0,0030537473100239341
1	0	0	1	0	0	1	30398,98	-0,100000001	1,4875046	-0,0002777382603461544	-0,099985774935162701	0,000148729305	-0,0033314855703700883	0,00012430220586049621	0,0033314855703700883
1	0	0	1	0	0	1	30408,98	-0,100000001	1,46587002	-0,00027773842487194474	-0,099985834164447936	0,000146566235	-0,0036092239952420326	0,00013466499991575222	0,0036092239952420326
1	0	0	1	0	0	1	30418,98	-0,100000001	1,44984949	-0,00027773838612271677	-0,099985820214725709	0,00014496439	-0,0038869623813647494	0,00014502779252522246	0,0038869623813647494
1	0	0	1	0	0	1	30428,98	-0,100000001	1,43692219	-0,00027773811629248989	-0,099985723075842854	0,000143671699	-0,0041647004976572397	0,00015539057506696416	0,0041647004976572397
1	0	0	1	0	0	1	30438,98	-0,100000001	1,42554164	-0,00027773783137980438	-0,099985620507274829	0,000142533667	-0,0044424383290370438	0,0001657533469782305	0,0044424383290370438
1	0	0	1	0	0	1	30448,98	-0,100000001	1,41542137	-0,00027773838811657494	-0,09998582093251465	0,000141522061	-0,0047201767171536192	0,00017611613966209427	0,0047201767171536192
1	0	0	1	0	0	1	30458,98	-0,100000001	1,40575933	-0,00027773805609676573	-0,099985701405381888	0,000140555829	-0,0049979147732503846	0,00018647891995785254	0,0049979147732503846
1	0	0	1	0	0	1	30468,98	-0,100000001	1,396842	-0,00027773793085043629	-0,099985656316702758	0,00013966416	-0,0052756527041008205	0,00019684169558050189	0,0052756527041008205
1	0	0	1	0	0	1	30478,98	-0,100000001	1,38821101	-0,00027773793086492352	-0,099985656321918157	0,000138801188	-0,005553390634965744	0,00020720447120369178	0,005553390634965744
1	0	0	1	0	0	1	30488,98	-0,100000001	1,37984753	-0,00027773862258303498	-0,09998590534044128	0,000137965311	-0,0058311292575487795	0,00021756727263581443	0,0058311292575487795
1	0	0	1	0	0	1	30498,98	-0,100000001	1,37188494	-0,00027773869568192298	-0,099985931656041293	0,000137169191	-0,0061088679532307021	0,00022793007679535485	0,0061088679532307021
1	0	0	1	0	0	1	30508,98	-0,100000001	1,36390328	-0,00027773839559861357	-0,099985823626048602	0,000136370989	-0,0063866063488293158	0,00023829286975838352	0,0063866063488293158
1	0	0	1	0	0	1	30518,98	-0,100000001	1,35616982	-0,00027773817678292589	-0,099985744852400077	0,000135597656	-0,0066643445256122406	0,00024865565455710474	0,0066643445256122406
1	0	0	1	0	0	1	30528,98	-0,100000001	1,34866548	-0,00027773797541649808	-0,099985672360485184	0,000134847229	-0,0069420825010287386	0,0002590184318425737	0,0069420825010287386
1	0	0	1	0	0	1	30538,98	-0,100000001	1,34112298	-0,00027773814721612467	-0,099985734208351526	0,000134093163	-0,0072198206482448627	0,00026938121553811779	0,0072198206482448627
1	0	0	1	0	0	1	30548,98	-0,100000001	1,33375239	-0,00027773852341704899	-0,099985869640685901	0,0001333564	-0,0074975591716619123	0,00027974401327022419	0,0074975591716619123
1	0	0	1	0	0	1	30558,98	-0,100000001	1,32657266	-0,00027773833653248019	-0,09998580236224032	0,000132638437	-0,0077752975081943923	0,000290106804029416	0,0077752975081943923
1	0	0	1	0	0	1	30568,98	-0,100000001	1,32103515	-0,00027773888271881475	-0,099985998989323149	0,000132085013	-0,008053036390913207	0,00030046961516755437	0,008053036390913207
1	0	0	1	0	0	1	30578,98	-0,100000001	1,31792271	-0,00027773890367440054	-0,099986006533334118	0,000131773835	-0,0083307752945876083	0,00031083242708757376	0,0083307752945876083
1	0	0	1	0	0	1	30588,98	-0,100000001	1,3159368	-0,00027773869455481571	-0,099985931250282675	0,000131575172	-0,0086085139891424243	0,00032119523120506042	0,0086085139891424243
1	0	0	1	0	0	1	30598,98	-0,100000001	1,31374097	-0,00027773850821372538	-0,099985864167489331	0,000131355526	-0,0088862524973561498	0,00033155802836991034	0,0088862524973561498
1	0	0	1	0	0	1	30608,98	-0,100000001	1,31131589	-0,00027773819747236038	-0,099985752300596582	0,000131112902	-0,0091639906948285107	0,00034192081394058214	0,0091639906948285107
1	0	0	1	0	0	1	30618,98	-0,100000001	1,30837524	-0,00027773808265146285	-0,099985710965072973	0,000130818822	-0,0094417287774799744	0,0003522835952271319	0,0094417287774799744
1	0	0	1	0	0	1	30628,98	-0,100000001	1,30484271	-0,0002777381387208071	-0,099985731150037158	0,000130465647	-0,0097194669162007808	0,00036264637860570426	0,0097194669162007808
1	0	0	1	0	0	1	30638,98	-0,100000001	1,30066097	-0,00027773794495852458	-0,099985661395614605	0,000130047454	-0,0099972048611593062	0,00037300915475474534	0,0099972048611593062
1	0	0	1	0	0	1	30648,98	-0,100000001	1,29594445	-0,00027773814081938726	-0,099985731905526016	0,000129575958	-0,010274943001978693	0,00038337193821161856	0,010274943001978693
1	0	0	1	0	0	1	30658,98	-0,100000001	1,29065514	-0,00027773842891760995	-0,099985835620887437	0,000129047228	-0,010552681430896302	0,00039373473241782381	0,010552681430896302
1	0	0	1	0	0	1	30668,98	-0,100000001	1,28485036	-0,0002777384706421031	-0,099985850641705165	0,000128466854	-0,010830419901538405	0,00040409752818082598	0,010830419901538405
1	0	0	1	0	0	1	30678,98	-0,100000001	1,27889276	-0,00027773852858816582	-0,099985871502287987	0,000127871201	-0,011108158430126571	0,00041446032610587366	0,011108158430126571
1	0	0	1	0	0	1	30688,98	-0,100000001	1,27266777	-0,00027773844304680826	-0,099985840707398886	0,000127248757	-0,011385896873173379	0,0004248231208392583	0,011385896873173379
1	0	0	1	0	0	1	30698,98	-0,100000001	1,26632833	-0,00027773851721816589	-0,099985867409087962	0,000126614934	-0,011663635390391547	0,00043518591834007603	0,011663635390391547
1	0	0	1	0	0	1	30708,98	-0,100000001	1,25966418	-0,00027773775933144822	-0,099985594569866291	0,000125948267	-0,011941373149722995	0,00044554868756312134	0,011941373149722995
1	0	0	1	0	0	1	30718,98	-0,100000001	1,25326741	-0,00027773778474951782	-0,099985603720371469	0,000125308696	-0,012219110934472512	0,00045591145773454893	0,012219110934472512
1	0	0	1	0	0	1	30728,98	-0,100000001	1,2466414	-0,00027773793292335338	-0,099985657062952909	0,000124646263	-0,012496848867395866	0,00046627423343454157	0,012496848867395866
1	0	0	1	0	0	1	30738,98	-0,100000001	1,24001551	-0,0002777381102827688	-0,099985720912343232	0,000123983846	-0,012774586977678634	0,00047663701575205254	0,012774586977678634
1	0	0	1	0	0	1	30748,98	-0,100000001	1,23325586	-0,00027773832775155706	-0,099985799201107955	0,000123308069	-0,01305232530543019	0,00048699980618361626	0,01305232530543019
1	0	0	1	0	0	1	30758,98	-0,100000001	1,2266109	-0,00027773849651465814	-0,099985859955825088	0,000122643745	-0,01333006380194485	0,00049736260291195834	0,01333006380194485
1	0	0	1	0	0	1	30768,98	-0,100000001	1,21962214	-0,00027773812609083123	-0,099985726603245786	0,000121944802	-0,013607801928035682	0,00050772538581928928	0,013607801928035682
1	0	0	1	0	0	1	30778,98	-0,100000001	1,21284342	-0,00027773822863979472	-0,099985763520873088	0,000121267076	-0,013885540156675474	0,00051808817255286003	0,013885540156675474
1	0	0	1	0	0	1	30788,98	-0,100000001	1,20602655	-0,00027773849023961357	-0,099985857696809011	0,000120585602	-0,01416327864691509	0,00052845096904707162	0,01416327864691509
1	0	0	1	0	0	1	30798,98	-0,100000001	1,19907606	-0,00027773836580415565	-0,099985812900043622	0,000119890596	-0,014441017012719245	0,00053881376089842906	0,014441017012719245
1	0	0	1	0	0	1	30808,98	-0,100000001	1,19212544	-0,00027773851192245882	-0,099985865502633395	0,000119195691	-0,014718755524641702	0,00054917655820165683	0,014718755524641702
1	0	0	1	0	0	1	30818,98	-0,100000001	1,18469751	-0,00027773792094654506	-0,099985652751301862	0,000118452757	-0,014996493445588246	0,00055953933345477869	0,014996493445588246
1	0	0	1	0	0	1	30828,98	-0,100000001	1,17746055	-0,00027773818347892826	-0,09998574726296096	0,000117729272	-0,015274231629067178	0,00056990211850333664	0,015274231629067178
1	0	0	1	0	0	1	30838,98	-0,100000001	1,17016637	-0,0002777382079325616	-0,099985756066269069	0,000116999967	-0,015551969836999738	0,00058026490446429274	0,015551969836999738
1	0	0	1	0	0	1	30848,98	-0,100000001	1,16271937	-0,00027773827927807971	-0,099985781750655898	0,000116255404	-0,015829708116277818	0,00059062769308724595	0,015829708116277818
1	0	0	1	0	0	1	30858,98	-0,100000001	1,15500498	-0,00027773821101213494	-0,099985757174915482	0,00011548405	-0,016107446327289952	0,0006009904791631049	0,016107446327289952
1	0	0	1	0	0	1	30868,98	-0,100000001	1,14709973	-0,00027773818330549533	-0,099985747200525094	0,000114693627	-0,01638518451059545	0,00061135326420519194	0,01638518451059545
1	0	0	1	0	0	1	30878,98	-0,100000001	1,13921344	-0,00027773789559553069	-0,099985643624936589	0,000113904993	-0,016662922406190979	0,00062171603851243341	0,016662922406190979
1	0	0	1	0	0	1	30888,98	-0,100000001	1,13094544	-0,00027773795663648179	-0,099985665599679232	0,000113078335	-0,016940660362827462	0,00063207881509719475	0,016940660362827462
1	0	0	1	0	0	1	30898,98	-0,100000001	1,12263906	-0,00027773767469161085	-0,099985564099524467	0,000112247697	-0,017218398037519075	0,00064244158116221389	0,017218398037519075
1	0	0	1	0	0	1	30908,98	-0,100000001	1,11402726	-0,0002777374859576424	-0,099985496155295014	0,000111386566	-0,017496135523476717	0,00065280434018531494	0,017496135523476717
1	0	0	1	0	0	1	30918,98	-0,100000001	1,10531998	-0,0002777375748409993	-0,099985528153303885	0,000110516004	-0,017773873098317715	0,0006631671025247735	0,017773873098317715
1	0	0	1	0	0	1	30928,98	-0,100000001	1,09626901	-0,00027773764888818067	-0,099985554810289498	0,000109611065	-0,018051610747205894	0,00067352986762703194	0,018051610747205894
1	0	0	1	0	0	1	30938,98	-0,100000001	1,08702707	-0,00027773737790808083	-0,099985457257452365	0,000108686902	-0,018329348125113974	0,00068389262261865856	0,018329348125113974
1	0	0	1	0	0	1	30948,98	-0,100000001	1,07761335	-0,00027773812329479389	-0,09998572559667232	0,000107745953	-0,018607086248408768	0,00069425540542166554	0,018607086248408768
1	0	0	1	0	0	1	30958,98	-0,100000001	1,06808496	-0,00027773778429337674	-0,099985603556160666	0,000106793115	-0,018884824032702144	0,00070461817557607398	0,018884824032702144
1	0	0	1	0	0	1	30968,98	-0,100000001	1,05809832	-0,00027773794379292262	-0,099985660975997901	0,000105794657	-0,019162561976495066	0,00071498095168162496	0,019162561976495066
1	0	0	1	0	0	1	30978,98	-0,100000001	1,04824531	-0,00027773802472195693	-0,099985690110450598	0,000104809529	-0,019440300001217024	0,00072534373080674688	0,019440300001217024
1	0	0	1	0	0	1	30988,98	-0,100000001	1,03820145	-0,0002777379902381864	-0,099985677696293043	0,000103805272	-0,01971803799145521	0,00073570650864523302	0,01971803799145521
1	0	0	1	0	0	1	30998,98	-0,100000001	1,02817655	-0,0002777380899923543	-0,099985713607793933	0,000102802966	-0,019995776081447565	0,00074606929020568128	0,019995776081447565
1	0	0	1	0	0	1	31008,98	-0,100000001	1,01849544	-0,00027773811772838237	-0,099985723592764147	0,000101835001	-0,020273514199175946	0,00075643207280099802	0,020273514199175946
1	0	0	1	0	0	1	31018,98	-0,100000001	1,00873804	-0,00027773788652941581	-0,099985640361135181	0,000100859317	-0,020551252085705363	0,00076679484676997056	0,020551252085705363
1	0	0	1	0	0	1	31028,98	-0,100000001	0,999858856	-0,00027773771596492992	-0,099985578957919526	9,99714684E-005	-0,020828989801670291	0,0007771576143749527	0,020828989801670291
1	0	0	1	0	0	1	31038,98	-0,100000001	0,991571665	-0,00027773932181629869	-0,099986157064419277	9,91434426E-005	-0,021106729123486589	0,00078752044189640858	0,021106729123486589
1	0	0	1	0	0	1	31048,98	-0,100000001	0,984067321	-0,00027773939728571312	-0,099986184233408794	9,83931386E-005	-0,021384468520772304	0,00079788327223372966	0,021384468520772304
1	0	0	1	0	0	1	31058,98	-0,100000001	0,97755599	-0,00027773913162201645	-0,099986088594476838	9,77419986E-005	-0,021662207652394323	0,00080824609265878118	0,021662207652394323
1	0	0	1	0	0	1	31068,98	-0,100000001	0,971655667	-0,00027773924454301597	-0,099986129246037171	9,71520858E-005	-0,021939946896937338	0,00081860891729706701	0,021939946896937338
1	0	0	1	0	0	1	31078,98	-0,100000001	0,966519117	-0,00027773948191064928	-0,099986214698386189	9,66385851E-005	-0,022217686378847987	0,0008289717507918583	0,022217686378847987
1	0	0	1	0	0	1	31088,98	-0,100000001	0,962050915	-0,00027773955970216128	-0,099986242703330842	9,61918558E-005	-0,02249542593855015	0,00083933458718915558	0,02249542593855015
1	0	0	1	0	0	1	31098,98	-0,100000001	0,958002806	-0,00027773936236318618	-0,099986171661298944	9,57870361E-005	-0,022773165300913338	0,00084969741622347034	0,022773165300913338
1	0	0	1	0	0	1	31108,98	-0,100000001	0,954412937	-0,00027773959297190112	-0,099986254680437325	9,54281786E-005	-0,023050904893885238	0,00086006025386210624	0,023050904893885238
1	0	0	1	0	0	1	31118,98	-0,100000001	0,951205015	-0,0002777394290541609	-0,099986195670050138	9,51073744E-005	-0,023328644322939395	0,00087042308538475085	0,023328644322939395
1	0	0	1	0	0	1	31128,98	-0,100000001	0,948283494	-0,00027773967067773146	-0,099986282654536589	9,48153393E-005	-0,023606383993617126	0,00088078592592269581	0,023606383993617126
1	0	0	1	0	0	1	31138,98	-0,100000001	0,945724785	-0,00027774000139906998	-0,099986401714219904	9,45596184E-005	-0,023884123995016198	0,00089114877880029862	0,023884123995016198
1	0	0	1	0	0	1	31148,98	-0,100000001	0,943433404	-0,00027773926266945069	-0,099986135771553741	9,43302584E-005	-0,024161863257685648	0,00090151160411490598	0,024161863257685648
1	0	0	1	0	0	1	31158,98	-0,100000001	0,941371143	-0,00027773930511830576	-0,099986151053141747	9,41240796E-005	-0,024439602562803955	0,00091187443101333722	0,024439602562803955
1	0	0	1	0	0	1	31168,98	-0,100000001	0,939538002	-0,00027773947883066202	-0,099986213589590771	9,39408492E-005	-0,024717342041634614	0,00092223726439320998	0,024717342041634614
1	0	0	1	0	0	1	31178,98	-0,100000001	0,937590361	-0,00027773947655989066	-0,099986212772113062	9,37461082E-005	-0,024995081518194506	0,00093260009768835738	0,024995081518194506
1	0	0	1	0	0	1	31188,98	-0,100000001	0,935890913	-0,00027773951124275722	-0,099986225257945165	9,35762E-005	-0,025272821029437264	0,00094296293227756902	0,025272821029437264
1	0	0	1	0	0	1	31198,98	-0,100000001	0,934344232	-0,00027773939851754243	-0,099986184676867354	9,34215132E-005	-0,025550560427954803	0,00095332576266085133	0,025550560427954803
1	0	0	1	0	0	1	31208,98	-0,100000001	0,932606578	-0,00027773888097703456	-0,099985998362282266	9,32476032E-005	-0,025828299308931837	0,00096368857373400154	0,025828299308931837
1	0	0	1	0	0	1	31218,98	-0,100000001	0,93096441	-0,0002777391662709415	-0,09998610106809001	9,30835013E-005	-0,026106038475202778	0,00097405139545185088	0,026106038475202778
1	0	0	1	0	0	1	31228,98	-0,100000001	0,929303169	-0,00027773967296092048	-0,099986283476484646	9,29175731E-005	-0,026383778148163699	0,0009844142360749847	0,026383778148163699
1	0	0	1	0	0	1	31238,98	-0,100000001	0,927584589	-0,00027773952325681846	-0,099986229583007258	9,27456858E-005	-0,026661517671420518	0,00099477707111245734	0,026661517671420518
1	0	0	1	0	0	1	31248,98	-0,100000001	0,925904274	-0,00027773979033364189	-0,09998632573066487	9,2577764E-005	-0,02693925746175416	0,001005139916114925	0,02693925746175416
1	0	0	1	0	0	1	31258,98	-0,100000001	0,924032927	-0,00027773991765206061	-0,099986371565296166	9,23906991E-005	-0,027216997379406221	0,0010155027658678144	0,027216997379406221
1	0	0	1	0	0	1	31268,98	-0,100000001	0,922257125	-0,00027774037932894301	-0,099986537768975846	9,22132967E-005	-0,027494737758735165	0,0010258656328464886	0,027494737758735165
1	0	0	1	0	0	1	31278,98	-0,100000001	0,920385838	-0,00027773976709321142	-0,099986317364109798	9,20259918E-005	-0,027772477525828374	0,001036228476981825	0,027772477525828374
1	0	0	1	0	0	1	31288,98	-0,100000001	0,91822809	-0,0002777397084542447	-0,099986296254081523	9,18102232E-005	-0,028050217234282621	0,0010465913189292622	0,028050217234282621
1	0	0	1	0	0	1	31298,98	-0,100000001	0,916395009	-0,00027773965286256538	-0,099986276241076723	9,16269273E-005	-0,028327956887145184	0,0010569541588024995	0,028327956887145184
1	0	0	1	0	0	1	31308,98	-0,100000001	0,914237261	-0,00027773976554142106	-0,099986316805465254	9,1411217E-005	-0,028605696652686605	0,0010673170028799363	0,028605696652686605
1	0	0	1	0	0	1	31318,98	-0,100000001	0,912251413	-0,00027773947458631462	-0,099986212061625677	9,12125615E-005	-0,028883436127272922	0,0010776798361014467	0,028883436127272922
1	0	0	1	0	0	1	31328,98	-0,100000001	0,910093665	-0,0002777395531816615	-0,099986240355950899	9,09968439E-005	-0,029161175680454586	0,0010880426722554554	0,029161175680454586
1	0	0	1	0	0	1	31338,98	-0,100000001	0,907821357	-0,00027773966439275277	-0,099986280391944243	9,07696813E-005	-0,029438915344847334	0,0010984055125588992	0,029438915344847334
1	0	0	1	0	0	1	31348,98	-0,100000001	0,905759156	-0,00027773975746043856	-0,099986313896311514	9,0563517E-005	-0,02971665510230777	0,0011087683563348237	0,02971665510230777
1	0	0	1	0	0	1	31358,98	-0,100000001	0,903505921	-0,00027773981256783008	-0,099986333734972723	9,03382461E-005	-0,029994394914875603	0,001119131202166879	0,029994394914875603
1	0	0	1	0	0	1	31368,98	-0,100000001	0,901195467	-0,00027773941143188211	-0,099986189326029696	9,01071035E-005	-0,030272134326307482	0,0011294940330320126	0,030272134326307482
1	0	0	1	0	0	1	31378,98	-0,100000001	0,898884952	-0,00027773948683506915	-0,09998621647117737	8,98761064E-005	-0,030549873813142554	0,0011398568667105406	0,030549873813142554
1	0	0	1	0	0	1	31388,98	-0,100000001	0,896555364	-0,00027773978154485421	-0,099986322566701274	8,96432757E-005	-0,030827613594687405	0,0011502197113850872	0,030827613594687405
1	0	0	1	0	0	1	31398,98	-0,100000001	0,894168496	-0,00027773974262964397	-0,099986308557225421	8,94046098E-005	-0,03110535333731705	0,0011605825546076547	0,03110535333731705
1	0	0	1	0	0	1	31408,98	-0,100000001	0,892048955	-0,00027773964469672906	-0,099986273301375616	8,91926538E-005	-0,031383092982013779	0,0011709453941762134	0,031383092982013779
1	0	0	1	0	0	1	31418,98	-0,100000001	0,889757574	-0,00027773988133793075	-0,099986358492209254	8,89636212E-005	-0,031660832863351712	0,0011813082425741738	0,031660832863351712
1	0	0	1	0	0	1	31428,98	-0,100000001	0,887332559	-0,00027773928237706422	-0,099986142866294707	8,87209608E-005	-0,031938572145728774	0,0011916710686240986	0,031938572145728774
1	0	0	1	0	0	1	31438,98	-0,100000001	0,885060251	-0,00027773945458191962	-0,099986204860043392	8,84938127E-005	-0,032216311600310694	0,0012020339010992184	0,032216311600310694
1	0	0	1	0	0	1	31448,98	-0,100000001	0,882673383	-0,00027773959286055632	-0,099986254640353216	8,82552049E-005	-0,032494051193171251	0,0012123967387337002	0,032494051193171251
1	0	0	1	0	0	1	31458,98	-0,100000001	0,880229235	-0,00027773952227416966	-0,099986229229253696	8,80108055E-005	-0,032771790715445421	0,0012227595737345083	0,032771790715445421
1	0	0	1	0	0	1	31468,98	-0,100000001	0,87786144	-0,00027773940882914598	-0,099986188389044685	8,77740167E-005	-0,033049530124274566	0,0012331224045025302	0,033049530124274566
1	0	0	1	0	0	1	31478,98	-0,100000001	0,875398219	-0,00027773947472870349	-0,099986212112885683	8,75277547E-005	-0,03332726959900327	0,0012434852377293538	0,03332726959900327
1	0	0	1	0	0	1	31488,98	-0,100000001	0,873068631	-0,00027773908897572093	-0,099986073241810266	8,72947057E-005	-0,033605008687978989	0,0012538480565632149	0,033605008687978989
1	0	0	1	0	0	1	31498,98	-0,100000001	0,870548129	-0,00027773923758955469	-0,099986126742791078	8,7042732E-005	-0,033882747925568544	0,0012642108809420574	0,033882747925568544
1	0	0	1	0	0	1	31508,98	-0,100000001	0,868103981	-0,00027773943309030602	-0,0999861971230624	8,67984127E-005	-0,034160487358658848	0,001274573712615296	0,034160487358658848
1	0	0	1	0	0	1	31518,98	-0,100000001	0,865602553	-0,00027773961052008797	-0,099986260997784666	8,65483598E-005	-0,034438226969178931	0,0012849365509086781	0,034438226969178931
1	0	0	1	0	0	1	31528,98	-0,100000001	0,863234758	-0,0002777392723552055	-0,09998613925842551	8,63115129E-005	-0,034715966241534138	0,0012952993765846742	0,034715966241534138
1	0	0	1	0	0	1	31538,98	-0,100000001	0,860714257	-0,00027773955634277728	-0,099986241493952589	8,60595828E-005	-0,034993705797876915	0,0013056622128566282	0,034993705797876915
1	0	0	1	0	0	1	31548,98	-0,100000001	0,858174622	-0,00027773958330311712	-0,099986251199675046	8,58056665E-005	-0,035271445381180038	0,0013160250501345088	0,035271445381180038
1	0	0	1	0	0	1	31558,98	-0,100000001	0,855673194	-0,00027773941977115142	-0,099986192328166694	8,55555045E-005	-0,035549184800951194	0,0013263878813107922	0,035549184800951194
1	0	0	1	0	0	1	31568,98	-0,100000001	0,853248119	-0,00027773957456110253	-0,09998624805254976	8,53130769E-005	-0,035826924375512288	0,0013367507182624965	0,035826924375512288
1	0	0	1	0	0	1	31578,98	-0,100000001	0,850593925	-0,00027773951136113869	-0,099986225300562509	8,5047679E-005	-0,036104663886873434	0,0013471135528561251	0,036104663886873434
1	0	0	1	0	0	1	31588,98	-0,100000001	0,84816891	-0,00027773953139864736	-0,099986232514065715	8,4805215E-005	-0,036382403418272077	0,0013574763881973802	0,036382403418272077
1	0	0	1	0	0	1	31598,98	-0,100000001	0,845514715	-0,00027773957574781443	-0,099986248479766042	8,45398463E-005	-0,036660142994019891	0,0013678392251933622	0,036660142994019891
1	0	0	1	0	0	1	31608,98	-0,100000001	0,843070567	-0,00027773948665377165	-0,099986216405910246	8,42954396E-005	-0,036937882480673664	0,0013782020588651259	0,036937882480673664
1	0	0	1	0	0	1	31618,98	-0,100000001	0,840435445	-0,00027773946543741558	-0,099986208768022003	8,40319553E-005	-0,037215621946111085	0,0013885648917452787	0,037215621946111085
1	0	0	1	0	0	1	31628,98	-0,100000001	0,837934017	-0,00027773945651948454	-0,099986205557566771	8,37818443E-005	-0,037493361402630573	0,0013989277242926917	0,037493361402630573
1	0	0	1	0	0	1	31638,98	-0,100000001	0,835298896	-0,00027773951682531171	-0,099986227267664819	8,35183819E-005	-0,037771100919455878	0,001409290559090196	0,037771100919455878
1	0	0	1	0	0	1	31648,98	-0,100000001	0,832721114	-0,00027773952203616499	-0,099986229143572019	8,32606456E-005	-0,038048840441492045	0,0014196533940821243	0,038048840441492045
1	0	0	1	0	0	1	31658,98	-0,100000001	0,830200553	-0,00027773996970926726	-0,099986390305890778	8,30087592E-005	-0,038326580411201312	0,0014300162457773379	0,038326580411201312
1	0	0	1	0	0	1	31668,98	-0,100000001	0,827603698	-0,00027774002943270736	-0,099986411806329485	8,2749124E-005	-0,038604320440634022	0,0014403790997009131	0,038604320440634022
1	0	0	1	0	0	1	31678,98	-0,100000001	0,825006783	-0,00027774024906754496	-0,099986490874871974	8,24895324E-005	-0,038882060689701562	0,0014507419618193594	0,038882060689701562
1	0	0	1	0	0	1	31688,98	-0,100000001	0,822314382	-0,00027774008073657754	-0,09998643027572297	8,22202783E-005	-0,039159800770438138	0,0014611048176571514	0,039159800770438138
1	0	0	1	0	0	1	31698,98	-0,100000001	0,8197366	-0,00027774006932477158	-0,099986426167472781	8,19625348E-005	-0,039437540839762912	0,0014714676730691536	0,039437540839762912
1	0	0	1	0	0	1	31708,98	-0,100000001	0,817120552	-0,0002777395964678791	-0,099986255938989427	8,17008258E-005	-0,03971528043623079	0,0014818305108382291	0,03971528043623079
1	0	0	1	0	0	1	31718,98	-0,100000001	0,81448549	-0,00027773989246661466	-0,099986362498535514	8,14374434E-005	-0,039993020328697408	0,0014921933596514157	0,039993020328697408
1	0	0	1	0	0	1	31728,98	-0,100000001	0,811888576	-0,00027773998207350573	-0,099986394757016691	8,11778082E-005	-0,040270760310770912	0,0015025562118079555	0,040270760310770912
1	0	0	1	0	0	1	31738,98	-0,100000001	0,809253454	-0,00027774035877072147	-0,099986530368016	8,09144476E-005	-0,040548500669541632	0,0015129190780195747	0,040548500669541632
1	0	0	1	0	0	1	31748,98	-0,100000001	0,806522906	-0,00027774001662764285	-0,099986407196506202	8,064133E-005	-0,040826240686169274	0,0015232819314653763	0,040826240686169274
1	0	0	1	0	0	1	31758,98	-0,100000001	0,803887784	-0,00027774024286576445	-0,099986488642230976	8,03779185E-005	-0,04110398092903504	0,0015336447933524259	0,04110398092903504
1	0	0	1	0	0	1	31768,98	-0,100000001	0,801214516	-0,00027774018512210912	-0,09998646785451479	8,01106071E-005	-0,041381721114157152	0,0015440076530849824	0,041381721114157152
1	0	0	1	0	0	1	31773,41	-0,100000001	0,800126076	-0,00012318895052621762	-0,099986523710276326	8,00018242E-005	-0,041504910064683366	0,0015486039984584211	0,041504910064683366
1	1	0	0	1	0	2	31773,42	0,100000001	0,811882675	5,4878952602545421E-009	0,032927373191936576	2,67331634E-005	-0,041504904576788102	0,0015486037936976701	5,4878952602545421E-009
1	1	0	0	0	0	2	31783,42	0,100000001	0,832752883	0,00027780481664546662	0,10000973520320522	8,32833975E-005	-0,041227099760142637	0,0015382385224760794	0,00027781030454072685
1	1	0	0	0	0	2	31793,42	0,100000001	0,838748693	0,00027780518414245715	0,10000986750212339	8,38831475E-005	-0,040949294576000179	0,0015278732375426819	0,00055561548868318394
1	1	0	0	0	0	2	31803,42	0,100000001	0,843789756	0,00027780559771839117	0,10001001638946144	8,43874295E-005	-0,040671488978281792	0,0015175079371782102	0,00083342108640157517
1	1	0	0	0	0	2	31813,42	0,100000001	0,848410726	0,00027780563263760675	0,1000100289603792	8,48495838E-005	-0,040393683345644186	0,0015071426355108554	0,0011112267190391818
1	1	0	0	0	0	2	31823,42	0,100000001	0,852726161	0,00027780593528971082	0,10001013791513795	8,52812591E-005	-0,040115877410354477	0,0014967773225511437	0,0013890326543288926
1	1	0	0	0	0	2	31833,42	0,100000001	0,856888831	0,00027780560021640528	0,10001001728874653	8,56974657E-005	-0,039838071810138074	0,0014864120220934678	0,0016668382545452979
1	1	0	0	0	0	2	31843,42	0,100000001	0,860975146	0,00027780600844240851	0,10001016425010947	8,61062654E-005	-0,039560265801695661	0,0014760467064043306	0,0019446442629877062
1	1	0	0	0	0	2	31853,42	0,100000001	0,864908695	0,0002778059003870521	0,10001012535018069	8,64996255E-005	-0,039282459901308608	0,0014656813947468842	0,0022224501633747584
1	1	0	0	0	0	2	31863,42	0,100000001	0,868670404	0,00027780603419368467	0,10001017352056901	8,68758798E-005	-0,039004653867114925	0,0014553160780969325	0,0025002561975684432
1	1	0	0	0	0	2	31873,42	0,100000001	0,872527599	0,00027780637364213661	0,10001029572201318	8,72617456E-005	-0,038726847493472787	0,0014449507487817021	0,0027780625712105798
1	1	0	0	0	0	2	31883,42	0,100000001	0,876193821	0,00027780656688618992	0,10001036528987322	8,76284612E-005	-0,038449040926586598	0,0014345854122562768	0,0030558691380967693
1	1	0	0	0	0	2	31893,42	0,100000001	0,879879117	0,00027780670146519942	0,10001041373831722	8,79970758E-005	-0,038171234225121402	0,0014242200707095275	0,0033336758395619686
1	1	0	0	0	0	2	31903,42	0,100000001	0,883583546	0,00027780665244327651	0,10001039609042477	8,83675384E-005	-0,037893427572678118	0,001413854730991852	0,0036114824920052454
1	1	0	0	0	0	2	31913,42	0,100000001	0,887192488	0,00027780700211185549	0,10001052197111472	8,8728586E-005	-0,037615620570566266	0,0014034893782275717	0,0038892894941171014
1	1	0	0	0	0	2	31923,42	0,100000001	0,890705943	0,00027780631292694147	0,10001027386454266	8,90797455E-005	-0,037337814257639322	0,0013931240511777075	0,0041670958070440429
1	1	0	0	0	0	2	31933,42	0,100000001	0,894123912	0,00027780618870051366	0,10001022914302813	8,94215409E-005	-0,03706000806893881	0,0013827587287628984	0,0044449019957445568
1	1	0	0	0	0	2	31943,42	0,100000001	0,897618294	0,00027780635780303018	0,1000102900199348	8,97710634E-005	-0,036782201711135782	0,0013723934000386467	0,0047227083535475872
1	1	0	0	0	0	2	31953,42	0,100000001	0,901112676	0,0002778065292942855	0,10001035175678747	9,01205931E-005	-0,036504395181841498	0,0013620280649158256	0,0050005148828418726
1	1	0	0	0	0	2	31963,42	0,100000001	0,904416084	0,0002778061930918031	0,10001023072389232	9,04508634E-005	-0,03622658898874969	0,0013516627423371715	0,0052783210759336762
1	1	0	0	0	0	2	31973,42	0,100000001	0,907891333	0,00027780606118796602	0,1000101832385104	9,07983776E-005	-0,035948782927561728	0,0013412974246800266	0,0055561271371216422
1	1	0	0	0	0	2	31983,42	0,100000001	0,911175668	0,00027780619082806842	0,10001022990894784	9,11268871E-005	-0,035670976736733658	0,0013309321021858352	0,0058339333279497101
1	1	0	0	0	0	2	31993,42	0,100000001	0,914536357	0,00027780655563208794	0,10001036123839645	9,14631091E-005	-0,035393170181101574	0,0013205667660803154	0,0061117398835817984
1	1	0	0	0	0	2	32003,42	0,100000001	0,917877972	0,00027780620160284966	0,10001023378786914	9,1797192E-005	-0,03511536397949872	0,0013102014431841027	0,006389546085184649
1	1	0	0	0	0	2	32013,42	0,100000001	0,921085954	0,00027780636832118038	0,1000102938064689	9,21180763E-005	-0,034837557611177542	0,0012998361140674048	0,0066673524535058291
1	1	0	0	0	0	2	32023,42	0,100000001	0,924236596	0,00027780681966534918	0,10001045629037166	9,24333217E-005	-0,034559750791512198	0,0012894707681104491	0,0069451592731711782
1	1	0	0	0	0	2	32033,42	0,100000001	0,927559137	0,00027780711927596061	0,10001056415019307	9,27657093E-005	-0,034281943672236237	0,0012791054109746184	0,0072229663924471386
1	1	0	0	0	0	2	32043,42	0,100000001	0,930614293	0,00027780693702316941	0,10001049853918744	9,30711976E-005	-0,034004136735213062	0,0012687400606388846	0,0075007733294703078
1	1	0	0	0	0	2	32053,42	0,100000001	0,933841348	0,00027780709517250461	0,1000105554729488	9,33939955E-005	-0,033726329640040557	0,0012583747044023864	0,0077785804246428122
1	1	0	0	0	0	2	32063,42	0,100000001	0,93699199	0,00027780631912085747	0,10001027609435245	9,37088262E-005	-0,033448523320919693	0,0012480093771214186	0,0080563867437636698
1	1	0	0	0	0	2	32073,42	0,100000001	0,939951718	0,00027780608167499302	0,10001019061384022	9,40047539E-005	-0,033170717239244704	0,0012376440586998754	0,0083341928254386624
1	1	0	0	0	0	2	32083,42	0,100000001	0,94315964	0,00027780600002946125	0,10001016122144843	9,43255509E-005	-0,032892911239215245	0,0012272787433246365	0,0086119988254681242
1	1	0	0	0	0	2	32093,42	0,100000001	0,946195722	0,00027780612327034278	0,1000102055881663	9,46292275E-005	-0,032615105115944896	0,0012169134233511147	0,0088898049487384653
1	1	0	0	0	0	2	32103,42	0,100000001	0,949231803	0,00027780601399681635	0,10001016624969634	9,49328314E-005	-0,032337299101948083	0,001206548107454735	0,0091676109627352819
1	1	0	0	0	0	2	32113,42	0,100000001	0,952210605	0,00027780591802299021	0,1000101316991185	9,52307091E-005	-0,032059493183925094	0,0011961827951392683	0,009445416880758272
1	1	0	0	0	0	2	32123,42	0,100000001	0,955246747	0,00027780579162099293	0,10001008619439893	9,5534313E-005	-0,031781687392304102	0,0011858174875400298	0,0097232226723792653
1	1	0	0	0	0	2	32133,42	0,100000001	0,958130062	0,00027780619074155885	0,10001022987780438	9,58228047E-005	-0,031503881201562541	0,0011754521650490662	0,010001028863120822
1	1	0	0	0	0	2	32143,42	0,100000001	0,961108863	0,00027780645444699459	0,10001032481176242	9,61208061E-005	-0,031226074747115546	0,0011650868327188982	0,010278835317567818
1	1	0	0	0	0	2	32153,42	0,100000001	0,963858545	0,00027780638980575731	0,1000103015409167	9,63957864E-005	-0,030948268357309792	0,0011547215028005819	0,010556641707373574
1	1	0	0	0	0	2	32163,42	0,100000001	0,96657002	0,00027780620709848074	0,10001023576629634	9,66668958E-005	-0,030670462150211309	0,0011443561796993197	0,010834447914472056
1	1	0	0	0	0	2	32173,42	0,100000001	0,969376981	0,00027780646913374461	0,10001033009899248	9,69477114E-005	-0,030392655681077568	0,0011339908468211696	0,0111122543836058
1	1	0	0	0	0	2	32183,42	0,100000001	0,972183883	0,00027780660331828726	0,10001037840542842	9,72284761E-005	-0,030114849077759283	0,0011236255089364134	0,011390060986924088
1	1	0	0	0	0	2	32193,42	0,100000001	0,974914491	0,00027780655581959421	0,1000103613058987	9,750155E-005	-0,029837042521939686	0,0011132601728238976	0,011667867542743683
1	1	0	0	0	0	2	32203,42	0,100000001	0,978294253	0,00027780687424250778	0,10001047593814898	9,78396711E-005	-0,029559235647697178	0,0011028948248305949	0,011945674416986192
1	1	0	0	0	0	2	32213,42	0,100000001	0,981845915	0,0002778069617441959	0,10001050743875709	9,81949051E-005	-0,029281428685952986	0,0010925294735724861	0,012223481378730386
1	1	0	0	0	0	2	32223,42	0,100000001	0,986180484	0,00027780678861132925	0,10001044511092434	9,86283485E-005	-0,029003621897341651	0,0010821641287741974	0,012501288167341717
1	1	0	0	0	0	2	32233,42	0,100000001	0,991374314	0,00027780692685271302	0,10001049487782312	9,91478373E-005	-0,028725814970488938	0,0010717987788179371	0,012779095094194429
1	1	0	0	0	0	2	32243,42	0,100000001	0,997847438	0,0002778067005020049	0,10001041339156717	9,97951356E-005	-0,028448008269986931	0,0010614334373071259	0,013056901794696435
1	1	0	0	0	0	2	32253,42	0,100000001	1,00607741	0,00027780647892670496	0,10001033362445824	0,000100618134	-0,028170201791060227	0,0010510681040635872	0,013334708273623139
1	1	0	0	0	0	2	32263,42	0,100000001	1,01551032	0,0002778064086209569	0,10001030831438864	0,000101561498	-0,027892395382439267	0,0010407027734432502	0,013612514682244096
1	1	0	0	0	0	2	32273,42	0,100000001	1,02605069	0,00027780617751015558	0,10001022511449915	0,000102615559	-0,027614589204929114	0,0010303374514459682	0,013890320859754253
1	1	0	0	0	0	2	32283,42	0,100000001	1,03659105	0,00027780588867887853	0,10001012113523816	0,000103669598	-0,027336783316250234	0,0010199721402253693	0,01416812674843313
1	1	0	0	0	0	2	32293,42	0,100000001	1,04720783	0,00027780637071323062	0,10001029466760701	0,000104731567	-0,027058976945537005	0,0010096068110194208	0,014445933119146362
1	1	0	0	0	0	2	32303,42	0,100000001	1,05751908	0,0002778061813546551	0,10001022649851901	0,000105762723	-0,026781170764182349	0,00099924148887869542	0,014723739300501014
1	1	0	0	0	0	2	32313,42	0,100000001	1,06746757	0,00027780627611072528	0,10001026061070467	0,00010675771	-0,026503364488071622	0,00098887616320249344	0,015001545576611741
1	1	0	0	0	0	2	32323,42	0,100000001	1,07709134	0,00027780621426428352	0,10001023834598538	0,00010772016	-0,026225558273807341	0,00097851083983386534	0,015279351790876026
1	1	0	0	0	0	2	32333,42	0,100000001	1,0865624	0,00027780621524196531	0,10001023869795082	0,000108667366	-0,025947752058565376	0,00096814551642875878	0,01555715800611799
1	1	0	0	0	0	2	32343,42	0,100000001	1,09559429	0,00027780648727342493	0,10001033662927746	0,000109570756	-0,025669945571291952	0,00095778018287379264	0,015834964493391414
1	1	0	0	0	0	2	32353,42	0,100000001	1,10439706	0,00027780629904816547	0,10001026886818326	0,000110451045	-0,025392139272243786	0,0009474148563417641	0,016112770792439581
1	1	0	0	0	0	2	32363,42	0,100000001	1,1128943	0,00027780645814827747	0,10001032614422426	0,00011130092	-0,025114332814095507	0,00093704952387349619	0,016390577250587859
1	1	0	0	0	0	2	32373,42	0,100000001	1,12129605	0,00027780656064757043	0,10001036304397016	0,000112141228	-0,024836526253447933	0,00092668418758084198	0,01666838381123543
1	1	0	0	0	0	2	32383,42	0,100000001	1,12929678	0,00027780655708909037	0,10001036176291734	0,000112941379	-0,024558719696358845	0,00091631885142095962	0,016946190368324525
1	1	0	0	0	0	2	32393,42	0,100000001	1,13716388	0,0002778065257515344	0,10001035048139706	0,000113728158	-0,024280913170607312	0,00090595351643032346	0,017223996894076058
1	1	0	0	0	0	2	32403,42	0,100000001	1,14478278	0,00027780620700452064	0,10001023573247069	0,000114489994	-0,02400310696360279	0,00089558819333256691	0,017501803101080579
1	1	0	0	0	0	2	32413,42	0,100000001	1,1524781	0,0002778063673257	0,10001029344809597	0,000115259674	-0,023725300596277091	0,00088522286425301184	0,017779609468406278
1	1	0	0	0	0	2	32423,42	0,100000001	1,15979135	0,00027780603219610122	0,10001017280143894	0,00011599093	-0,023447494564080989	0,00087485754767759245	0,018057415500602381
1	1	0	0	0	0	2	32433,42	0,100000001	1,16700923	0,00027780624079290365	0,10001024789628874	0,000116712879	-0,023169688323288083	0,00086449222331914586	0,018335221741395283
1	1	0	0	0	0	2	32443,42	0,100000001	1,17426538	0,00027780646077626282	0,10001032709029899	0,000117438663	-0,022891881862511821	0,00085412689075282445	0,018613028202171546
1	1	0	0	0	0	2	32453,42	0,100000001	1,18142593	0,00027780623808378973	0,10001024692100771	0,000118154698	-0,022614075624428032	0,00084376156649545869	0,018890834440255338
1	1	0	0	0	0	2	32463,42	0,100000001	1,18852925	0,00027780623472481968	0,10001024571177846	0,0001188651	-0,022336269389703213	0,00083339624236342054	0,019168640674980157
1	1	0	0	0	0	2	32473,42	0,100000001	1,19567072	0,00027780641813245082	0,1000103117385265	0,000119579403	-0,022058462971570762	0,00082303091138819712	0,019446447093112608
1	1	0	0	0	0	2	32483,42	0,100000001	1,20286953	0,00027780607673691382	0,10001018883613168	0,000120299206	-0,02178065689483385	0,00081266559315090022	0,01972425316984952
1	1	0	0	0	0	2	32493,42	0,100000001	1,20983911	0,00027780596912196938	0,10001015009475122	0,000120996192	-0,021502850925711878	0,00080230027892886144	0,020002059138971491
1	1	0	0	0	0	2	32503,42	0,100000001	1,21711433	0,00027780583659352531	0,10001010238451075	0,00012172373	-0,021225045089118352	0,00079193496965163725	0,020279864975565014
1	1	0	0	0	0	2	32513,42	0,100000001	1,2242558	0,00027780622629821306	0,10001024267820003	0,000122438127	-0,020947238862820141	0,00078156964583400717	0,020557671201863226
1	1	0	0	0	0	2	32523,42	0,100000001	1,23151183	0,00027780655641895206	0,10001036152166754	0,000123163947	-0,02066943230640119	0,00077120430969912858	0,020835477758282179
1	1	0	0	0	0	2	32533,42	0,100000001	1,23863423	0,00027780629269323414	0,10001026658040795	0,000123876132	-0,020391626013707958	0,00076083898340421107	0,021113284050975411
1	1	0	0	0	0	2	32543,42	0,100000001	1,24592853	0,00027780645666312845	0,10001032560957059	0,000124605722	-0,020113819557044829	0,00075047365099135616	0,021391090507638541
1	1	0	0	0	0	2	32553,42	0,100000001	1,25312734	0,00027780656766974266	0,10001036557195219	0,000125325721	-0,019836012989375085	0,0007401083144366953	0,021668897075308285
1	1	0	0	0	0	2	32563,42	0,100000001	1,26040244	0,00027780599160202678	0,10001015818757197	0,000126053041	-0,019558206997773059	0,00072974299937589555	0,021946703066910307
1	1	0	0	0	0	2	32573,42	0,100000001	1,26788771	0,00027780611528497603	0,10001020271343424	0,000126801708	-0,019280400882488086	0,00071937767970031859	0,022224509182195283
1	1	0	0	0	0	2	32583,42	0,100000001	1,27531552	0,00027780643771919939	0,10001031878975606	0,000127544714	-0,019002594444768886	0,00070901234799428723	0,022502315619914483
1	1	0	0	0	0	2	32593,42	0,100000001	1,28270531	0,00027780643675931622	0,10001031844419811	0,000128283762	-0,018724788008009571	0,0006986470163240704	0,022780122056673798
1	1	0	0	0	0	2	32603,42	0,100000001	1,29011416	0,00027780635594949126	0,10001028935266077	0,000129024687	-0,01844698165206008	0,0006882816876689769	0,02305792841262329
1	1	0	0	0	0	2	32613,42	0,100000001	1,29780936	0,00027780610922558438	0,10001020053205322	0,000129794178	-0,018169175542834496	0,0006779163682194839	0,023335734521848874
1	1	0	0	0	0	2	32623,42	0,100000001	1,30527544	0,00027780632762362557	0,10001027915534901	0,000130540968	-0,01789136921521087	0,00066755104062126656	0,023613540849472499
1	1	0	0	0	0	2	32633,42	0,100000001	1,31293249	0,00027780591507587168	0,10001013063815579	0,000131306544	-0,017613563300134998	0,00065718572841576038	0,023891346764548371
1	1	0	0	0	0	2	32643,42	0,100000001	1,32045591	0,00027780584384625155	0,10001010499549226	0,000132058936	-0,017335757456288746	0,00064682041886792704	0,024169152608394621
1	1	0	0	0	0	2	32653,42	0,100000001	1,32805574	0,00027780636669736768	0,10001029322189634	0,000132819245	-0,017057951089591379	0,00063645508981181568	0,02444695897509199
1	1	0	0	0	0	2	32663,42	0,100000001	1,33573186	0,00027780611831736234	0,10001020380509333	0,000133586815	-0,016780144971274016	0,00062608977002309645	0,024724765093409354
1	1	0	0	0	0	2	32673,42	0,100000001	1,34352255	0,00027780598356326419	0,10001015529361741	0,000134365895	-0,016502338987710752	0,0006157244552622336	0,025002571076972618
1	1	0	0	0	0	2	32683,42	0,100000001	1,35121787	0,00027780628575301837	0,10001026408193022	0,000135135662	-0,016224532701957734	0,00060535912922626483	0,025280377362725635
1	1	0	0	0	0	2	32693,42	0,100000001	1,3589704	0,00027780663143636448	0,10001038852793634	0,000135911163	-0,015946726070521373	0,00059499379029238566	0,025558183994161997
1	1	0	0	0	0	2	32703,42	0,100000001	1,36647463	0,00027780632387350003	0,10001027780530379	0,000136661503	-0,015668919746647872	0,00058462846283409037	0,025835990318035498
1	1	0	0	0	0	2	32713,42	0,100000001	1,37273777	0,00027780656620322	0,10001036504400405	0,000137288007	-0,015391113180444653	0,00057426312633414746	0,02611379688423872
1	1	0	0	0	0	2	32723,42	0,100000001	1,37392163	0,0002778062036091255	0,10001023451012845	0,000137406227	-0,015113306976835526	0,0005638978033630777	0,026391603087847843
1	1	0	0	0	0	2	32733,42	0,100000001	1,37193584	0,00027780649080748358	0,10001033790153861	0,000137207768	-0,014835500486028042	0,00055353246967625114	0,026669409578655328
1	1	0	0	0	0	2	32743,42	0,100000001	1,37014091	0,00027780639716444746	0,10001030419004518	0,000137028212	-0,014557694088863597	0,0005431671394833721	0,026947215975819776
1	1	0	0	0	0	2	32753,42	0,100000001	1,36956799	0,00027780569574816355	0,10001005168017994	0,000136970571	-0,014279888393115434	0,0005328018354612777	0,027225021671567939
1	1	0	0	0	0	2	32763,42	0,100000001	1,36998808	0,00027780647318893011	0,10001033155885926	0,000137012961	-0,014002081919926502	0,00052243650243182304	0,02750282814475687
1	1	0	0	0	0	2	32773,42	0,100000001	1,3709811	0,00027780641559635597	0,10001031006759043	0,000137112249	-0,013724275504330146	0,0005120711715512247	0,027780634560353226
1	1	0	0	0	0	2	32783,42	0,100000001	1,37298608	0,00027780620131351882	0,1000102322865832	0,000137312658	-0,013446469303016627	0,00050170584866580717	0,028058440761666746
1	1	0	0	0	0	2	32793,42	0,100000001	1,37543023	0,00027780581578198406	0,10001009349523094	0,000137556912	-0,013168663487234645	0,00049134054016508947	0,028336246577448726
1	1	0	0	0	0	2	32803,42	0,100000001	1,37856174	0,00027780612674231334	0,10001020544094928	0,000137870244	-0,012890857360492331	0,00048097522006202387	0,02861405270419104
1	1	0	0	0	0	2	32813,42	0,100000001	1,38280082	0,00027780584605410694	0,10001010439319517	0,000138294054	-0,012613051514438224	0,00047060991043181261	0,028891858550245146
1	1	0	0	0	0	2	32823,42	0,100000001	1,38767004	0,00027780606483502522	0,10001018315432558	0,000138781135	-0,012335245449603197	0,00046024459263859117	0,029169664615080173
1	1	0	0	0	0	2	32833,42	0,100000001	1,3937422	0,00027780604004652963	0,1000101742304672	0,000139388401	-0,012057439409556669	0,00044987927577026182	0,029447470655126701
1	1	0	0	0	0	2	32843,42	0,100000001	1,40080726	0,00027780601738434701	0,10001016607208146	0,00014009497	-0,011779633392172322	0,0004395139597474889	0,029725276672511046
1	1	0	0	0	0	2	32853,42	0,100000001	1,40892267	0,00027780596398272448	0,10001014684749739	0,000140906559	-0,011501827428189597	0,00042914864571720237	0,030003082636493773
1	1	0	0	0	0	2	32863,42	0,100000001	1,41778266	0,00027780607465199299	0,100010186688434	0,000141792712	-0,011224021353537603	0,00041878332755769664	0,030280888711145766
1	1	0	0	0	0	2	32873,42	0,100000001	1,4271965	0,00027780623913390768	0,10001024590192317	0,00014273428	-0,010946215114403696	0,0004084180032611495	0,030558694950279674
1	1	0	0	0	0	2	32883,42	0,100000001	1,43727863	0,00027780603294281494	0,10001017167312992	0,00014374248	-0,010668409081460882	0,00039805268665786925	0,03083650098322249
1	1	0	0	0	0	2	32893,42	0,100000001	1,44837272	0,00027780626069381834	0,10001025366349099	0,000144852122	-0,010390602820767064	0,00038768736155689293	0,031114307243916307
1	1	0	0	0	0	2	32903,42	0,100000001	1,46074617	0,00027780611229108438	0,10001020023850688	0,000146089515	-0,010112796708475979	0,00037732204199302202	0,031392113356207392
1	1	0	0	0	0	2	32913,42	0,100000001	1,47537291	0,00027780563964446387	0,10001003008572379	0,000147552084	-0,0098349910688315162	0,00036695674006423219	0,031669918995851853
1	1	0	0	0	0	2	32923,42	0,100000001	1,4947542	0,00027780595829875936	0,10001014480126995	0,000149490588	-0,0095571851105327578	0,00035659142624602202	0,031947724954150611
1	1	0	0	0	0	2	32933,42	0,100000001	1,52752113	0,00027780619828692736	0,10001023119701029	0,000152767738	-0,0092793789122458304	0,00034622610347353069	0,032225531152437536
1	1	0	0	0	0	2	32943,42	0,100000001	1,63546467	0,00027780605116196806	0,10001017823202502	0,00016356312	-0,009001572861083863	0,00033586078619046938	0,032503337203599507
1	1	0	0	0	0	2	32953,42	0,100000001	1,86546278	0,00027780623003799053	0,10001024262739299	0,00018656539	-0,0087237666310458726	0,00032549546223330317	0,032781143433637491
1	1	0	0	0	0	2	32963,42	0,100000001	2,09987187	0,00027780631421216662	0,10001027293009634	0,000210008759	-0,0084459603168337062	0,00031513013513548518	0,033058949747849664
1	1	0	0	0	0	2	32973,42	0,100000001	2,29609752	0,00027780676714703443	0,10001043598664843	0,000229633719	-0,0081681535496866726	0,00030476479113805843	0,033336756514996691
1	1	0	0	0	0	2	32983,42	0,100000001	2,46480107	0,00027780685718357562	0,10001046839980322	0,000246505922	-0,0078903466925030963	0,00029439944378124717	0,033614563372180269
1	1	0	0	0	0	2	32993,42	0,100000001	2,61085796	0,00027780675878086026	0,10001043297482574	0,000261113048	-0,0076125399337222362	0,00028403410009597363	0,033892370130961126
1	1	0	0	0	0	2	33003,42	0,100000001	2,74079895	0,00027780658519806131	0,10001037048501824	0,000274108315	-0,0073347333485241741	0,00027366876288730762	0,034170176716159194
1	1	0	0	0	0	2	33013,42	0,100000001	2,85670495	0,0002778064595990711	0,10001032526938186	0,000285699993	-0,0070569268889251034	0,00026330343036490886	0,034447983175758266
1	1	0	0	0	0	2	33023,42	0,100000001	2,96107769	0,00027780646133381459	0,1000103258938895	0,000296138343	-0,0067791204275912896	0,00025293809777778448	0,034725789637092083
1	1	0	0	0	0	2	33033,42	0,100000001	3,05592203	0,0002778067033816543	0,10001041303111163	0,000305624038	-0,0065013137242096346	0,00024257275615952973	0,035003596340473734
1	1	0	0	0	0	2	33043,42	0,100000001	3,1419065	0,00027780692674219606	0,10001049344090653	0,000314223609	-0,0062235067974674381	0,00023220740620739283	0,03528140326721593
1	1	0	0	0	0	2	33053,42	0,100000001	3,22006202	0,00027780698199984099	0,10001051333365866	0,000322040054	-0,0059456998154675981	0,00022184205419351894	0,035559210249215776
1	1	0	0	0	0	2	33063,42	0,100000001	3,28949094	0,00027780671475289594	0,10001041712475862	0,000328983355	-0,0056678931007147014	0,0002114767121509879	0,035837016963968666
1	1	0	0	0	0	2	33073,42	0,100000001	3,35000277	0,00027780664922503958	0,1000103935347304	0,000335035089	-0,0053900864514896621	0,00020111137255338928	0,036114823613193709
1	1	0	0	0	0	2	33083,42	0,100000001	3,40375495	0,00027780675245780083	0,10001043069852437	0,000340411003	-0,0051122796990318611	0,00019074602910403754	0,036392630365651514
1	1	0	0	0	0	2	33093,42	0,100000001	3,45206499	0,0002778069256171584	0,10001049303589298	0,000345242734	-0,0048344727734147021	0,00018038067919387734	0,036670437291268672
1	1	0	0	0	0	2	33103,42	0,100000001	3,49621248	0,00027780700287057296	0,10001052084712214	0,000349658018	-0,0045566657705441293	0,00017001532640128835	0,036948244294139238
1	1	0	0	0	0	2	33113,42	0,100000001	3,53730464	0,00027780714646561277	0,10001057254133638	0,000353767857	-0,0042788586240785165	0,00015964996825097539	0,037226051440604851
1	1	0	0	0	0	2	33123,42	0,100000001	3,57581902	0,00027780658399603434	0,10001037005228853	0,000357618992	-0,0040010520400824819	0,00014928463108715866	0,03750385802460089
1	1	0	0	0	0	2	33133,42	0,100000001	3,61253858	0,00027780642419432605	0,10001031252367365	0,00036129111	-0,0037232456158881562	0,0001389192998857585	0,037781664448795213
1	1	0	0	0	0	2	33143,42	0,100000001	3,64899087	0,00027780670409732397	0,10001041328875272	0,000364937092	-0,003445438911790832	0,00012855395824080117	0,038059471152892538
1	1	0	0	0	0	2	33153,42	0,100000001	3,68536663	0,00027780653323564262	0,10001035177854755	0,000368574809	-0,0031676323785551898	0,00011818862297092291	0,038337277686128179
1	1	0	0	0	0	2	33163,42	0,100000001	3,72191429	0,00027780624351484909	0,10001024747906208	0,000372229581	-0,0028898261350403405	0,00010782329851091696	0,038615083929643021
1	1	0	0	0	0	2	33173,42	0,100000001	3,75808001	0,00027780587830104762	0,10001011600209379	0,000375846023	-0,0026120202567392925	9,7457987677528986E-005	0,03889288980794407
1	1	0	0	0	0	2	33183,42	0,100000001	3,79331017	0,00027780684859347014	0,10001046530736523	0,000379370729	-0,0023342134081458227	8,709264064122615E-005	0,039170696656537542
1	1	0	0	0	0	2	33193,42	0,100000001	3,82710814	0,0002778062494351632	0,10001024961037514	0,000382750033	-0,0020564071587106592	7,6727315960325338E-005	0,03944850290597271
1	1	0	0	0	0	2	33203,42	0,100000001	3,85972214	0,00027780616681733062	0,10001021986795549	0,00038601167	-0,0017786009918933286	6,6361994362006938E-005	0,039726309072790042
1	1	0	0	0	0	2	33213,42	0,100000001	3,89092326	0,00027780645243699347	0,10001032269103392	0,000389132503	-0,0015007945394563354	5,5996662106834899E-005	0,040004115525227034
1	1	0	0	0	0	2	33223,42	0,100000001	3,9209404	0,0002778061093352735	0,10001019917441494	0,000392134039	-0,0012229884301210616	4,5631342653249331E-005	0,04028192163456231
1	1	0	0	0	0	2	33233,42	0,100000001	3,94990754	0,00027780573113676573	0,10001006302295242	0,000395030511	-0,00094518269898429606	3,5266037310758586E-005	0,040559727365699078
1	1	0	0	0	0	2	33243,42	0,100000001	3,97822523	0,00027780650147340362	0,10001034034414154	0,000397863652	-0,00066737619751089242	2,490070322597215E-005	0,04083753386717248
1	1	0	0	0	0	2	33253,42	0,100000001	4,00600863	0,00027780655424048506	0,10001035934029082	0,00040064237	-0,00038956964327040736	1,4535367172374957E-005	0,041115340421412966
1	1	0	0	0	0	2	33263,42	0,100000001	4,0329895	0,00027780645126228531	0,10001032226813898	0,000403340586	-0,00011176319200812205	4,1700349610328544E-006	0,041393146872675251
1	1	0	0	0	0	2	33273,42	0,100000001	4,05989408	0,0002778063858147297	0,10001029870701898	0,000406031206	0,00016604319380660765	-6,195294808372951E-006	0,041670953258489984
1	1	0	0	0	0	2	33283,42	0,100000001	4,0867033	0,00027780646872147917	0,10001032855344875	0,000408712542	0,00044384966252808685	-1,6560627671141053E-005	0,041948759727211462
1	1	0	0	0	0	2	33293,42	0,100000001	4,11307335	0,00027780685601880154	0,10001046798048453	0,000411350396	0,00072165651854688832	-2,6925974984492976E-005	0,042226566583230266
1	1	0	0	0	0	2	33303,42	0,100000001	4,13835526	0,00027780666530049504	0,10001039932189435	0,000413878559	0,00099946318384738342	-3,7291315181888461E-005	0,042504373248530758
1	1	0	0	0	0	2	33313,42	0,100000001	4,1624341	0,00027780674200215277	0,10001042693449106	0,000416286814	0,001277269925849536	-4,765665824112592E-005	0,042782179990532909
1	1	0	0	0	0	2	33323,42	0,100000001	4,18500423	0,00027780678478462829	0,10001044233618221	0,000418544136	0,0015550767106341645	-5,8022002896635059E-005	0,043059986775317542
1	1	0	0	0	0	2	33330,77	0,100000001	4,19981003	0,00020426546937144464	0,10001029381673267	0,00042002424	0,001759342180005609	-6,5643422196728154E-005	0,043264252244688986