LNMO auf L432 bei 850°C und 1MPa  Original Data
 3151 
 12            429 
 12.02         475 
 12.04         447 
 12.06         458 
 12.08         455 
 12.1          444 
 12.12         460 
 12.14         403 
 12.16         494 
 12.18         400 
 12.2          515 
 12.22         460 
 12.24         480 
 12.26         461 
 12.28         526 
 12.3          465 
 12.32         499 
 12.34         461 
 12.36         439 
 12.38         470 
 12.4          443 
 12.42         459 
 12.44         436 
 12.46         474 
 12.48         435 
 12.5          491 
 12.52         445 
 12.54         490 
 12.56         435 
 12.58         469 
 12.6          466 
 12.62         463 
 12.64         457 
 12.66         478 
 12.68         439 
 12.7          441 
 12.72         464 
 12.74         434 
 12.76         489 
 12.78         433 
 12.8          481 
 12.82         478 
 12.84         492 
 12.86         427 
 12.88         512 
 12.9          447 
 12.92         512 
 12.94         434 
 12.96         454 
 12.98         452 
 13            445 
 13.02         496 
 13.04         451 
 13.06         426 
 13.08         407 
 13.1          446 
 13.12         401 
 13.14         441 
 13.16         393 
 13.18         468 
 13.2          407 
 13.22         404 
 13.24         422 
 13.26         464 
 13.28         403 
 13.3          388 
 13.32         410 
 13.34         418 
 13.36         429 
 13.38         399 
 13.4          413 
 13.42         393 
 13.44         428 
 13.46         397 
 13.48         382 
 13.5          386 
 13.52         409 
 13.54         387 
 13.56         405 
 13.58         367 
 13.6          358 
 13.62         414 
 13.64         378 
 13.66         353 
 13.68         356 
 13.7          409 
 13.72         361 
 13.74         368 
 13.76         339 
 13.78         369 
 13.8          367 
 13.82         377 
 13.84         356 
 13.86         387 
 13.88         364 
 13.9          302 
 13.92         345 
 13.94         324 
 13.96         371 
 13.98         332 
 14            340 
 14.02         311 
 14.04         342 
 14.06         315 
 14.08         330 
 14.1          319 
 14.12         344 
 14.14         345 
 14.16         333 
 14.18         361 
 14.2          320 
 14.22         291 
 14.24         326 
 14.26         312 
 14.28         331 
 14.3          317 
 14.32         306 
 14.34         279 
 14.36         329 
 14.38         318 
 14.4          277 
 14.42         297 
 14.44         292 
 14.46         284 
 14.48         270 
 14.5          286 
 14.52         279 
 14.54         292 
 14.56         279 
 14.58         270 
 14.6          253 
 14.62         261 
 14.64         265 
 14.66         280 
 14.68         281 
 14.7          264 
 14.72         269 
 14.74         257 
 14.76         254 
 14.78         234 
 14.8          286 
 14.82         273 
 14.84         222 
 14.86         248 
 14.88         260 
 14.9          240 
 14.92         235 
 14.94         244 
 14.96         244 
 14.98         250 
 15            223 
 15.02         244 
 15.04         212 
 15.06         216 
 15.08         247 
 15.1          249 
 15.12         262 
 15.14         218 
 15.16         218 
 15.18         216 
 15.2          241 
 15.22         213 
 15.24         234 
 15.26         207 
 15.28         253 
 15.3          218 
 15.32         217 
 15.34         198 
 15.36         216 
 15.38         209 
 15.4          217 
 15.42         222 
 15.44         198 
 15.46         203 
 15.48         202 
 15.5          204 
 15.52         196 
 15.54         217 
 15.56         207 
 15.58         226 
 15.6          197 
 15.62         202 
 15.64         191 
 15.66         200 
 15.68         181 
 15.7          205 
 15.72         201 
 15.74         184 
 15.76         175 
 15.78         207 
 15.8          191 
 15.82         181 
 15.84         198 
 15.86         187 
 15.88         189 
 15.9          194 
 15.92         178 
 15.94         161 
 15.96         177 
 15.98         205 
 16            195 
 16.02         199 
 16.04         198 
 16.06         165 
 16.08         160 
 16.1          209 
 16.12         180 
 16.14         155 
 16.16         199 
 16.18         167 
 16.2          165 
 16.22         193 
 16.24         144 
 16.26         159 
 16.28         148 
 16.3          191 
 16.32         202 
 16.34         189 
 16.36         156 
 16.38         184 
 16.4          149 
 16.42         173 
 16.44         178 
 16.46         178 
 16.48         164 
 16.5          186 
 16.52         172 
 16.54         158 
 16.56         151 
 16.58         160 
 16.6          152 
 16.62         159 
 16.64         163 
 16.66         146 
 16.68         172 
 16.7          156 
 16.72         159 
 16.74         163 
 16.76         164 
 16.78         154 
 16.8          146 
 16.82         142 
 16.84         148 
 16.86         176 
 16.88         144 
 16.9          173 
 16.92         140 
 16.94         139 
 16.96         146 
 16.98         140 
 17            145 
 17.02         152 
 17.04         147 
 17.06         139 
 17.08         164 
 17.1          146 
 17.12         130 
 17.14         154 
 17.16         148 
 17.18         147 
 17.2          148 
 17.22         162 
 17.24         148 
 17.26         173 
 17.28         164 
 17.3          131 
 17.32         149 
 17.34         136 
 17.36         141 
 17.38         137 
 17.4          142 
 17.42         131 
 17.44         146 
 17.46         146 
 17.48         163 
 17.5          134 
 17.52         144 
 17.54         132 
 17.56         157 
 17.58         137 
 17.6          123 
 17.62         143 
 17.64         139 
 17.66         122 
 17.68         148 
 17.7          136 
 17.72         157 
 17.74         127 
 17.76         143 
 17.78         139 
 17.8          154 
 17.82         146 
 17.84         161 
 17.86         104 
 17.88         152 
 17.9          122 
 17.92         170 
 17.94         131 
 17.96         117 
 17.98         140 
 18            143 
 18.02         133 
 18.04         146 
 18.06         138 
 18.08         140 
 18.1          130 
 18.12         143 
 18.14         182 
 18.16         161 
 18.18         143 
 18.2          173 
 18.22         158 
 18.24         206 
 18.26         198 
 18.28         233 
 18.3          245 
 18.32         251 
 18.34         286 
 18.36         351 
 18.38         348 
 18.4          424 
 18.42         483 
 18.44         545 
 18.46         661 
 18.48         742 
 18.5          893 
 18.52         1121 
 18.54         1399 
 18.56         1550 
 18.58         1884 
 18.6          2302 
 18.62         2790 
 18.64         3513 
 18.66         4374 
 18.68         4998 
 18.7          5922 
 18.72         6510 
 18.74         6530 
 18.76         6300 
 18.78         5412 
 18.8          4195 
 18.82         2952 
 18.84         2013 
 18.86         1357 
 18.88         870 
 18.9          634 
 18.92         438 
 18.94         361 
 18.96         312 
 18.98         290 
 19            239 
 19.02         252 
 19.04         201 
 19.06         186 
 19.08         171 
 19.1          176 
 19.12         167 
 19.14         142 
 19.16         150 
 19.18         128 
 19.2          144 
 19.22         115 
 19.24         131 
 19.26         136 
 19.28         124 
 19.3          135 
 19.32         136 
 19.34         105 
 19.36         133 
 19.38         113 
 19.4          130 
 19.42         95 
 19.44         123 
 19.46         105 
 19.48         120 
 19.5          113 
 19.52         117 
 19.54         96 
 19.56         113 
 19.58         109 
 19.6          137 
 19.62         120 
 19.64         123 
 19.66         105 
 19.68         96 
 19.7          110 
 19.72         125 
 19.74         104 
 19.76         127 
 19.78         120 
 19.8          125 
 19.82         105 
 19.84         101 
 19.86         104 
 19.88         98 
 19.9          106 
 19.92         134 
 19.94         104 
 19.96         113 
 19.98         104 
 20            100 
 20.02         111 
 20.04         93 
 20.06         91 
 20.08         105 
 20.1          100 
 20.12         107 
 20.14         96 
 20.16         103 
 20.18         86 
 20.2          103 
 20.22         115 
 20.24         113 
 20.26         93 
 20.28         92 
 20.3          131 
 20.32         92 
 20.34         80 
 20.36         88 
 20.38         84 
 20.4          100 
 20.42         89 
 20.44         87 
 20.46         109 
 20.48         83 
 20.5          94 
 20.52         105 
 20.54         82 
 20.56         112 
 20.58         87 
 20.6          94 
 20.62         107 
 20.64         97 
 20.66         98 
 20.68         103 
 20.7          87 
 20.72         83 
 20.74         91 
 20.76         95 
 20.78         102 
 20.8          103 
 20.82         90 
 20.84         102 
 20.86         99 
 20.88         75 
 20.9          91 
 20.92         95 
 20.94         100 
 20.96         90 
 20.98         95 
 21            92 
 21.02         101 
 21.04         81 
 21.06         110 
 21.08         89 
 21.1          92 
 21.12         73 
 21.14         90 
 21.16         89 
 21.18         107 
 21.2          102 
 21.22         92 
 21.24         102 
 21.26         96 
 21.28         96 
 21.3          92 
 21.32         98 
 21.34         75 
 21.36         102 
 21.38         106 
 21.4          109 
 21.42         99 
 21.44         94 
 21.46         102 
 21.48         106 
 21.5          81 
 21.52         100 
 21.54         101 
 21.56         81 
 21.58         87 
 21.6          81 
 21.62         85 
 21.64         110 
 21.66         88 
 21.68         87 
 21.7          105 
 21.72         85 
 21.74         95 
 21.76         85 
 21.78         80 
 21.8          89 
 21.82         81 
 21.84         77 
 21.86         116 
 21.88         87 
 21.9          74 
 21.92         77 
 21.94         88 
 21.96         74 
 21.98         103 
 22            86 
 22.02         74 
 22.04         99 
 22.06         97 
 22.08         96 
 22.1          76 
 22.12         74 
 22.14         78 
 22.16         99 
 22.18         88 
 22.2          88 
 22.22         90 
 22.24         75 
 22.26         94 
 22.28         94 
 22.3          75 
 22.32         80 
 22.34         81 
 22.36         95 
 22.38         78 
 22.4          76 
 22.42         84 
 22.44         82 
 22.46         82 
 22.48         68 
 22.5          83 
 22.52         83 
 22.54         85 
 22.56         97 
 22.58         78 
 22.6          92 
 22.62         84 
 22.64         80 
 22.66         92 
 22.68         80 
 22.7          69 
 22.72         90 
 22.74         71 
 22.76         77 
 22.78         77 
 22.8          77 
 22.82         92 
 22.84         87 
 22.86         94 
 22.88         63 
 22.9          79 
 22.92         81 
 22.94         64 
 22.96         75 
 22.98         83 
 23            92 
 23.02         86 
 23.04         76 
 23.06         95 
 23.08         80 
 23.1          83 
 23.12         81 
 23.14         69 
 23.16         85 
 23.18         83 
 23.2          82 
 23.22         87 
 23.24         66 
 23.26         86 
 23.28         81 
 23.3          74 
 23.32         105 
 23.34         84 
 23.36         85 
 23.38         99 
 23.4          70 
 23.42         87 
 23.44         83 
 23.46         86 
 23.48         69 
 23.5          96 
 23.52         67 
 23.54         93 
 23.56         62 
 23.58         78 
 23.6          67 
 23.62         60 
 23.64         80 
 23.66         88 
 23.68         76 
 23.7          69 
 23.72         92 
 23.74         85 
 23.76         71 
 23.78         79 
 23.8          67 
 23.82         61 
 23.84         71 
 23.86         86 
 23.88         83 
 23.9          68 
 23.92         55 
 23.94         69 
 23.96         75 
 23.98         66 
 24            81 
 24.02         71 
 24.04         79 
 24.06         82 
 24.08         67 
 24.1          76 
 24.12         68 
 24.14         62 
 24.16         84 
 24.18         74 
 24.2          74 
 24.22         71 
 24.24         65 
 24.26         78 
 24.28         82 
 24.3          63 
 24.32         72 
 24.34         68 
 24.36         75 
 24.38         75 
 24.4          84 
 24.42         75 
 24.44         86 
 24.46         75 
 24.48         84 
 24.5          74 
 24.52         65 
 24.54         99 
 24.56         87 
 24.58         65 
 24.6          83 
 24.62         80 
 24.64         86 
 24.66         86 
 24.68         84 
 24.7          74 
 24.72         89 
 24.74         74 
 24.76         69 
 24.78         75 
 24.8          83 
 24.82         67 
 24.84         62 
 24.86         72 
 24.88         59 
 24.9          70 
 24.92         80 
 24.94         58 
 24.96         79 
 24.98         60 
 25            69 
 25.02         68 
 25.04         65 
 25.06         76 
 25.08         77 
 25.1          64 
 25.12         77 
 25.14         68 
 25.16         83 
 25.18         89 
 25.2          74 
 25.22         69 
 25.24         80 
 25.26         65 
 25.28         77 
 25.3          79 
 25.32         69 
 25.34         71 
 25.36         73 
 25.38         61 
 25.4          75 
 25.42         60 
 25.44         72 
 25.46         82 
 25.48         68 
 25.5          74 
 25.52         56 
 25.54         70 
 25.56         71 
 25.58         68 
 25.6          76 
 25.62         68 
 25.64         56 
 25.66         56 
 25.68         61 
 25.7          65 
 25.72         74 
 25.74         66 
 25.76         57 
 25.78         60 
 25.8          71 
 25.82         56 
 25.84         75 
 25.86         67 
 25.88         66 
 25.9          71 
 25.92         66 
 25.94         64 
 25.96         70 
 25.98         61 
 26            62 
 26.02         61 
 26.04         58 
 26.06         76 
 26.08         58 
 26.1          61 
 26.12         64 
 26.14         62 
 26.16         70 
 26.18         63 
 26.2          52 
 26.22         45 
 26.24         54 
 26.26         62 
 26.28         56 
 26.3          61 
 26.32         43 
 26.34         59 
 26.36         71 
 26.38         52 
 26.4          55 
 26.42         58 
 26.44         70 
 26.46         56 
 26.48         53 
 26.5          55 
 26.52         59 
 26.54         65 
 26.56         51 
 26.58         60 
 26.6          60 
 26.62         57 
 26.64         57 
 26.66         41 
 26.68         61 
 26.7          39 
 26.72         60 
 26.74         61 
 26.76         59 
 26.78         69 
 26.8          72 
 26.82         61 
 26.84         55 
 26.86         56 
 26.88         62 
 26.9          62 
 26.92         66 
 26.94         57 
 26.96         64 
 26.98         45 
 27            56 
 27.02         61 
 27.04         62 
 27.06         62 
 27.08         60 
 27.1          68 
 27.12         65 
 27.14         49 
 27.16         66 
 27.18         60 
 27.2          66 
 27.22         55 
 27.24         63 
 27.26         51 
 27.28         62 
 27.3          68 
 27.32         53 
 27.34         58 
 27.36         47 
 27.38         58 
 27.4          54 
 27.42         52 
 27.44         51 
 27.46         51 
 27.48         59 
 27.5          66 
 27.52         55 
 27.54         49 
 27.56         64 
 27.58         61 
 27.6          57 
 27.62         56 
 27.64         43 
 27.66         56 
 27.68         48 
 27.7          70 
 27.72         52 
 27.74         67 
 27.76         66 
 27.78         54 
 27.8          60 
 27.82         58 
 27.84         53 
 27.86         65 
 27.88         75 
 27.9          59 
 27.92         55 
 27.94         61 
 27.96         53 
 27.98         53 
 28            64 
 28.02         50 
 28.04         66 
 28.06         83 
 28.08         56 
 28.1          66 
 28.12         58 
 28.14         66 
 28.16         92 
 28.18         81 
 28.2          75 
 28.22         68 
 28.24         78 
 28.26         66 
 28.28         64 
 28.3          69 
 28.32         60 
 28.34         71 
 28.36         54 
 28.38         77 
 28.4          73 
 28.42         64 
 28.44         70 
 28.46         63 
 28.48         61 
 28.5          44 
 28.52         47 
 28.54         56 
 28.56         64 
 28.58         63 
 28.6          50 
 28.62         54 
 28.64         49 
 28.66         62 
 28.68         60 
 28.7          56 
 28.72         49 
 28.74         50 
 28.76         55 
 28.78         54 
 28.8          56 
 28.82         50 
 28.84         47 
 28.86         63 
 28.88         67 
 28.9          49 
 28.92         55 
 28.94         62 
 28.96         38 
 28.98         57 
 29            53 
 29.02         52 
 29.04         60 
 29.06         58 
 29.08         55 
 29.1          62 
 29.12         58 
 29.14         64 
 29.16         51 
 29.18         66 
 29.2          60 
 29.22         44 
 29.24         62 
 29.26         63 
 29.28         50 
 29.3          55 
 29.32         56 
 29.34         65 
 29.36         49 
 29.38         56 
 29.4          64 
 29.42         66 
 29.44         55 
 29.46         46 
 29.48         58 
 29.5          44 
 29.52         51 
 29.54         53 
 29.56         53 
 29.58         48 
 29.6          66 
 29.62         55 
 29.64         76 
 29.66         60 
 29.68         59 
 29.7          68 
 29.72         55 
 29.74         56 
 29.76         70 
 29.78         58 
 29.8          62 
 29.82         50 
 29.84         52 
 29.86         60 
 29.88         52 
 29.9          64 
 29.92         63 
 29.94         62 
 29.96         74 
 29.98         66 
 30            72 
 30.02         53 
 30.04         71 
 30.06         69 
 30.08         62 
 30.1          81 
 30.12         94 
 30.14         74 
 30.16         112 
 30.18         85 
 30.2          78 
 30.22         71 
 30.24         98 
 30.26         85 
 30.28         106 
 30.3          91 
 30.32         92 
 30.34         82 
 30.36         90 
 30.38         86 
 30.4          87 
 30.42         74 
 30.44         81 
 30.46         101 
 30.48         96 
 30.5          99 
 30.52         90 
 30.54         94 
 30.56         94 
 30.58         105 
 30.6          97 
 30.62         123 
 30.64         105 
 30.66         111 
 30.68         124 
 30.7          155 
 30.72         163 
 30.74         189 
 30.76         158 
 30.78         193 
 30.8          217 
 30.82         209 
 30.84         191 
 30.86         197 
 30.88         181 
 30.9          130 
 30.92         143 
 30.94         124 
 30.96         90 
 30.98         71 
 31            72 
 31.02         71 
 31.04         51 
 31.06         71 
 31.08         61 
 31.1          58 
 31.12         57 
 31.14         57 
 31.16         54 
 31.18         44 
 31.2          60 
 31.22         57 
 31.24         37 
 31.26         59 
 31.28         53 
 31.3          60 
 31.32         55 
 31.34         69 
 31.36         59 
 31.38         59 
 31.4          55 
 31.42         62 
 31.44         57 
 31.46         68 
 31.48         65 
 31.5          53 
 31.52         79 
 31.54         53 
 31.56         50 
 31.58         54 
 31.6          56 
 31.62         51 
 31.64         56 
 31.66         55 
 31.68         43 
 31.7          52 
 31.72         52 
 31.74         53 
 31.76         38 
 31.78         64 
 31.8          37 
 31.82         40 
 31.84         52 
 31.86         40 
 31.88         47 
 31.9          48 
 31.92         40 
 31.94         57 
 31.96         48 
 31.98         51 
 32            37 
 32.02         45 
 32.04         45 
 32.06         56 
 32.08         47 
 32.1          38 
 32.12         53 
 32.14         39 
 32.16         42 
 32.18         50 
 32.2          43 
 32.22         48 
 32.24         54 
 32.26         45 
 32.28         52 
 32.3          45 
 32.32         64 
 32.34         42 
 32.36         57 
 32.38         39 
 32.4          43 
 32.42         56 
 32.44         53 
 32.46         52 
 32.48         40 
 32.5          54 
 32.52         49 
 32.54         54 
 32.56         56 
 32.58         55 
 32.6          44 
 32.62         60 
 32.64         47 
 32.66         48 
 32.68         52 
 32.7          39 
 32.72         53 
 32.74         42 
 32.76         42 
 32.78         43 
 32.8          51 
 32.82         53 
 32.84         45 
 32.86         37 
 32.88         44 
 32.9          47 
 32.92         53 
 32.94         36 
 32.96         52 
 32.98         49 
 33            46 
 33.02         55 
 33.04         46 
 33.06         61 
 33.08         45 
 33.1          48 
 33.12         48 
 33.14         44 
 33.16         50 
 33.18         50 
 33.2          51 
 33.22         48 
 33.24         56 
 33.26         55 
 33.28         48 
 33.3          53 
 33.32         55 
 33.34         56 
 33.36         51 
 33.38         47 
 33.4          48 
 33.42         53 
 33.44         59 
 33.46         43 
 33.48         45 
 33.5          51 
 33.52         45 
 33.54         46 
 33.56         50 
 33.58         55 
 33.6          47 
 33.62         51 
 33.64         47 
 33.66         50 
 33.68         52 
 33.7          37 
 33.72         45 
 33.74         51 
 33.76         45 
 33.78         59 
 33.8          39 
 33.82         52 
 33.84         49 
 33.86         51 
 33.88         37 
 33.9          60 
 33.92         64 
 33.94         53 
 33.96         40 
 33.98         44 
 34            49 
 34.02         45 
 34.04         40 
 34.06         57 
 34.08         51 
 34.1          51 
 34.12         55 
 34.14         62 
 34.16         53 
 34.18         50 
 34.2          55 
 34.22         41 
 34.24         54 
 34.26         51 
 34.28         48 
 34.3          51 
 34.32         48 
 34.34         42 
 34.36         49 
 34.38         30 
 34.4          50 
 34.42         51 
 34.44         37 
 34.46         56 
 34.48         57 
 34.5          47 
 34.52         59 
 34.54         56 
 34.56         49 
 34.58         50 
 34.6          48 
 34.62         47 
 34.64         61 
 34.66         60 
 34.68         49 
 34.7          62 
 34.72         53 
 34.74         46 
 34.76         49 
 34.78         48 
 34.8          53 
 34.82         55 
 34.84         41 
 34.86         56 
 34.88         51 
 34.9          42 
 34.92         61 
 34.94         68 
 34.96         64 
 34.98         47 
 35            40 
 35.02         55 
 35.04         38 
 35.06         64 
 35.08         59 
 35.1          52 
 35.12         58 
 35.14         58 
 35.16         55 
 35.18         55 
 35.2          81 
 35.22         61 
 35.24         49 
 35.26         62 
 35.28         46 
 35.3          46 
 35.32         66 
 35.34         56 
 35.36         66 
 35.38         57 
 35.4          44 
 35.42         62 
 35.44         79 
 35.46         43 
 35.48         61 
 35.5          66 
 35.52         63 
 35.54         81 
 35.56         68 
 35.58         84 
 35.6          77 
 35.62         59 
 35.64         81 
 35.66         92 
 35.68         87 
 35.7          92 
 35.72         107 
 35.74         106 
 35.76         108 
 35.78         147 
 35.8          131 
 35.82         175 
 35.84         151 
 35.86         189 
 35.88         214 
 35.9          231 
 35.92         241 
 35.94         299 
 35.96         323 
 35.98         404 
 36            436 
 36.02         484 
 36.04         590 
 36.06         670 
 36.08         777 
 36.1          929 
 36.12         1146 
 36.14         1353 
 36.16         1617 
 36.18         1932 
 36.2          2284 
 36.22         2772 
 36.24         3237 
 36.26         3819 
 36.28         4220 
 36.3          4501 
 36.32         4758 
 36.34         4695 
 36.36         4498 
 36.38         3989 
 36.4          3413 
 36.42         2825 
 36.44         2316 
 36.46         1845 
 36.48         1380 
 36.5          971 
 36.52         706 
 36.54         497 
 36.56         389 
 36.58         332 
 36.6          207 
 36.62         219 
 36.64         170 
 36.66         175 
 36.68         157 
 36.7          144 
 36.72         151 
 36.74         124 
 36.76         118 
 36.78         92 
 36.8          111 
 36.82         106 
 36.84         70 
 36.86         86 
 36.88         70 
 36.9          79 
 36.92         68 
 36.94         81 
 36.96         72 
 36.98         53 
 37            65 
 37.02         63 
 37.04         68 
 37.06         58 
 37.08         54 
 37.1          56 
 37.12         61 
 37.14         63 
 37.16         46 
 37.18         53 
 37.2          55 
 37.22         53 
 37.24         55 
 37.26         72 
 37.28         64 
 37.3          53 
 37.32         48 
 37.34         64 
 37.36         67 
 37.38         67 
 37.4          80 
 37.42         73 
 37.44         82 
 37.46         75 
 37.48         88 
 37.5          88 
 37.52         79 
 37.54         83 
 37.56         81 
 37.58         98 
 37.6          83 
 37.62         83 
 37.64         108 
 37.66         112 
 37.68         108 
 37.7          128 
 37.72         130 
 37.74         159 
 37.76         197 
 37.78         209 
 37.8          230 
 37.82         281 
 37.84         312 
 37.86         336 
 37.88         426 
 37.9          505 
 37.92         586 
 37.94         717 
 37.96         837 
 37.98         857 
 38            843 
 38.02         864 
 38.04         815 
 38.06         719 
 38.08         618 
 38.1          598 
 38.12         445 
 38.14         364 
 38.16         301 
 38.18         220 
 38.2          158 
 38.22         128 
 38.24         105 
 38.26         85 
 38.28         75 
 38.3          66 
 38.32         60 
 38.34         63 
 38.36         65 
 38.38         70 
 38.4          45 
 38.42         44 
 38.44         57 
 38.46         49 
 38.48         57 
 38.5          52 
 38.52         47 
 38.54         41 
 38.56         47 
 38.58         47 
 38.6          49 
 38.62         37 
 38.64         47 
 38.66         37 
 38.68         35 
 38.7          52 
 38.72         32 
 38.74         38 
 38.76         42 
 38.78         43 
 38.8          39 
 38.82         36 
 38.84         42 
 38.86         40 
 38.88         45 
 38.9          44 
 38.92         41 
 38.94         37 
 38.96         48 
 38.98         44 
 39            45 
 39.02         32 
 39.04         45 
 39.06         42 
 39.08         41 
 39.1          36 
 39.12         41 
 39.14         29 
 39.16         34 
 39.18         33 
 39.2          36 
 39.22         49 
 39.24         41 
 39.26         28 
 39.28         37 
 39.3          34 
 39.32         31 
 39.34         33 
 39.36         27 
 39.38         33 
 39.4          45 
 39.42         38 
 39.44         40 
 39.46         44 
 39.48         40 
 39.5          38 
 39.52         44 
 39.54         45 
 39.56         43 
 39.58         39 
 39.6          31 
 39.62         38 
 39.64         28 
 39.66         33 
 39.68         38 
 39.7          35 
 39.72         48 
 39.74         35 
 39.76         45 
 39.78         31 
 39.8          35 
 39.82         41 
 39.84         26 
 39.86         33 
 39.88         35 
 39.9          34 
 39.92         34 
 39.94         27 
 39.96         39 
 39.98         33 
 40            33 
 40.02         29 
 40.04         27 
 40.06         38 
 40.08         25 
 40.1          36 
 40.12         30 
 40.14         30 
 40.16         47 
 40.18         44 
 40.2          27 
 40.22         41 
 40.24         40 
 40.26         40 
 40.28         31 
 40.3          31 
 40.32         27 
 40.34         45 
 40.36         33 
 40.38         37 
 40.4          28 
 40.42         46 
 40.44         38 
 40.46         40 
 40.48         30 
 40.5          40 
 40.52         33 
 40.54         45 
 40.56         43 
 40.58         26 
 40.6          50 
 40.62         40 
 40.64         36 
 40.66         31 
 40.68         40 
 40.7          35 
 40.72         42 
 40.74         29 
 40.76         35 
 40.78         38 
 40.8          29 
 40.82         37 
 40.84         43 
 40.86         35 
 40.88         42 
 40.9          45 
 40.92         40 
 40.94         39 
 40.96         35 
 40.98         49 
 41            37 
 41.02         26 
 41.04         38 
 41.06         36 
 41.08         39 
 41.1          41 
 41.12         39 
 41.14         31 
 41.16         40 
 41.18         47 
 41.2          41 
 41.22         35 
 41.24         43 
 41.26         39 
 41.28         34 
 41.3          35 
 41.32         43 
 41.34         24 
 41.36         38 
 41.38         39 
 41.4          42 
 41.42         35 
 41.44         35 
 41.46         28 
 41.48         34 
 41.5          45 
 41.52         40 
 41.54         36 
 41.56         37 
 41.58         23 
 41.6          36 
 41.62         31 
 41.64         32 
 41.66         38 
 41.68         32 
 41.7          41 
 41.72         29 
 41.74         48 
 41.76         36 
 41.78         34 
 41.8          30 
 41.82         40 
 41.84         43 
 41.86         29 
 41.88         39 
 41.9          36 
 41.92         38 
 41.94         34 
 41.96         32 
 41.98         37 
 42            33 
 42.02         34 
 42.04         37 
 42.06         36 
 42.08         29 
 42.1          35 
 42.12         27 
 42.14         36 
 42.16         35 
 42.18         33 
 42.2          37 
 42.22         33 
 42.24         40 
 42.26         38 
 42.28         29 
 42.3          29 
 42.32         26 
 42.34         32 
 42.36         39 
 42.38         36 
 42.4          41 
 42.42         35 
 42.44         30 
 42.46         30 
 42.48         36 
 42.5          35 
 42.52         33 
 42.54         37 
 42.56         45 
 42.58         44 
 42.6          41 
 42.62         38 
 42.64         29 
 42.66         39 
 42.68         37 
 42.7          32 
 42.72         38 
 42.74         44 
 42.76         38 
 42.78         48 
 42.8          35 
 42.82         46 
 42.84         34 
 42.86         32 
 42.88         36 
 42.9          40 
 42.92         31 
 42.94         32 
 42.96         49 
 42.98         41 
 43            36 
 43.02         43 
 43.04         39 
 43.06         42 
 43.08         49 
 43.1          48 
 43.12         42 
 43.14         50 
 43.16         55 
 43.18         47 
 43.2          39 
 43.22         40 
 43.24         58 
 43.26         48 
 43.28         75 
 43.3          58 
 43.32         64 
 43.34         66 
 43.36         66 
 43.38         74 
 43.4          70 
 43.42         98 
 43.44         89 
 43.46         93 
 43.48         90 
 43.5          109 
 43.52         126 
 43.54         138 
 43.56         132 
 43.58         162 
 43.6          164 
 43.62         155 
 43.64         160 
 43.66         196 
 43.68         194 
 43.7          205 
 43.72         221 
 43.74         244 
 43.76         277 
 43.78         311 
 43.8          348 
 43.82         405 
 43.84         465 
 43.86         493 
 43.88         604 
 43.9          730 
 43.92         792 
 43.94         951 
 43.96         1107 
 43.98         1274 
 44            1544 
 44.02         1957 
 44.04         2126 
 44.06         2574 
 44.08         3021 
 44.1          3449 
 44.12         3749 
 44.14         4070 
 44.16         4164 
 44.18         4112 
 44.2          4106 
 44.22         3725 
 44.24         3361 
 44.26         3000 
 44.28         2582 
 44.3          2111 
 44.32         1824 
 44.34         1528 
 44.36         1155 
 44.38         875 
 44.4          667 
 44.42         497 
 44.44         376 
 44.46         306 
 44.48         305 
 44.5          241 
 44.52         197 
 44.54         188 
 44.56         157 
 44.58         159 
 44.6          133 
 44.62         105 
 44.64         109 
 44.66         110 
 44.68         97 
 44.7          95 
 44.72         78 
 44.74         91 
 44.76         76 
 44.78         72 
 44.8          65 
 44.82         56 
 44.84         60 
 44.86         71 
 44.88         54 
 44.9          53 
 44.92         70 
 44.94         43 
 44.96         54 
 44.98         50 
 45            55 
 45.02         52 
 45.04         73 
 45.06         50 
 45.08         53 
 45.1          46 
 45.12         33 
 45.14         47 
 45.16         50 
 45.18         47 
 45.2          59 
 45.22         51 
 45.24         45 
 45.26         46 
 45.28         41 
 45.3          39 
 45.32         35 
 45.34         43 
 45.36         42 
 45.38         38 
 45.4          55 
 45.42         46 
 45.44         43 
 45.46         48 
 45.48         49 
 45.5          30 
 45.52         48 
 45.54         47 
 45.56         39 
 45.58         45 
 45.6          47 
 45.62         46 
 45.64         44 
 45.66         41 
 45.68         45 
 45.7          45 
 45.72         34 
 45.74         36 
 45.76         31 
 45.78         38 
 45.8          36 
 45.82         35 
 45.84         40 
 45.86         44 
 45.88         35 
 45.9          38 
 45.92         35 
 45.94         37 
 45.96         34 
 45.98         41 
 46            41 
 46.02         42 
 46.04         32 
 46.06         39 
 46.08         39 
 46.1          50 
 46.12         35 
 46.14         41 
 46.16         35 
 46.18         35 
 46.2          24 
 46.22         37 
 46.24         47 
 46.26         25 
 46.28         36 
 46.3          38 
 46.32         36 
 46.34         32 
 46.36         31 
 46.38         37 
 46.4          37 
 46.42         44 
 46.44         44 
 46.46         25 
 46.48         37 
 46.5          36 
 46.52         30 
 46.54         42 
 46.56         33 
 46.58         33 
 46.6          35 
 46.62         35 
 46.64         28 
 46.66         25 
 46.68         33 
 46.7          30 
 46.72         31 
 46.74         34 
 46.76         45 
 46.78         36 
 46.8          38 
 46.82         37 
 46.84         39 
 46.86         40 
 46.88         43 
 46.9          28 
 46.92         45 
 46.94         25 
 46.96         34 
 46.98         43 
 47            36 
 47.02         32 
 47.04         29 
 47.06         25 
 47.08         38 
 47.1          32 
 47.12         38 
 47.14         34 
 47.16         33 
 47.18         34 
 47.2          40 
 47.22         42 
 47.24         42 
 47.26         35 
 47.28         34 
 47.3          42 
 47.32         35 
 47.34         39 
 47.36         32 
 47.38         34 
 47.4          39 
 47.42         35 
 47.44         36 
 47.46         31 
 47.48         40 
 47.5          37 
 47.52         40 
 47.54         41 
 47.56         51 
 47.58         39 
 47.6          42 
 47.62         39 
 47.64         52 
 47.66         38 
 47.68         43 
 47.7          42 
 47.72         32 
 47.74         50 
 47.76         40 
 47.78         37 
 47.8          40 
 47.82         44 
 47.84         48 
 47.86         45 
 47.88         49 
 47.9          55 
 47.92         49 
 47.94         55 
 47.96         66 
 47.98         70 
 48            71 
 48.02         98 
 48.04         92 
 48.06         76 
 48.08         112 
 48.1          90 
 48.12         146 
 48.14         154 
 48.16         199 
 48.18         224 
 48.2          245 
 48.22         289 
 48.24         312 
 48.26         371 
 48.28         463 
 48.3          504 
 48.32         542 
 48.34         598 
 48.36         626 
 48.38         652 
 48.4          650 
 48.42         621 
 48.44         554 
 48.46         500 
 48.48         490 
 48.5          394 
 48.52         340 
 48.54         295 
 48.56         255 
 48.58         190 
 48.6          158 
 48.62         126 
 48.64         100 
 48.66         81 
 48.68         70 
 48.7          71 
 48.72         65 
 48.74         59 
 48.76         55 
 48.78         54 
 48.8          50 
 48.82         45 
 48.84         45 
 48.86         42 
 48.88         45 
 48.9          41 
 48.92         51 
 48.94         41 
 48.96         43 
 48.98         35 
 49            51 
 49.02         51 
 49.04         34 
 49.06         47 
 49.08         42 
 49.1          39 
 49.12         43 
 49.14         41 
 49.16         54 
 49.18         47 
 49.2          40 
 49.22         44 
 49.24         37 
 49.26         28 
 49.28         36 
 49.3          37 
 49.32         46 
 49.34         34 
 49.36         46 
 49.38         36 
 49.4          32 
 49.42         37 
 49.44         35 
 49.46         36 
 49.48         39 
 49.5          39 
 49.52         32 
 49.54         35 
 49.56         35 
 49.58         32 
 49.6          43 
 49.62         32 
 49.64         35 
 49.66         44 
 49.68         20 
 49.7          31 
 49.72         35 
 49.74         35 
 49.76         40 
 49.78         44 
 49.8          35 
 49.82         40 
 49.84         39 
 49.86         48 
 49.88         42 
 49.9          41 
 49.92         36 
 49.94         39 
 49.96         38 
 49.98         47 
 50            51 
 50.02         56 
 50.04         53 
 50.06         45 
 50.08         50 
 50.1          48 
 50.12         67 
 50.14         45 
 50.16         42 
 50.18         55 
 50.2          42 
 50.22         52 
 50.24         51 
 50.26         51 
 50.28         51 
 50.3          48 
 50.32         53 
 50.34         46 
 50.36         41 
 50.38         59 
 50.4          52 
 50.42         52 
 50.44         56 
 50.46         52 
 50.48         49 
 50.5          50 
 50.52         50 
 50.54         43 
 50.56         42 
 50.58         48 
 50.6          46 
 50.62         53 
 50.64         50 
 50.66         36 
 50.68         40 
 50.7          42 
 50.72         46 
 50.74         38 
 50.76         44 
 50.78         37 
 50.8          46 
 50.82         42 
 50.84         37 
 50.86         47 
 50.88         53 
 50.9          40 
 50.92         36 
 50.94         32 
 50.96         38 
 50.98         35 
 51            44 
 51.02         46 
 51.04         24 
 51.06         32 
 51.08         47 
 51.1          39 
 51.12         34 
 51.14         30 
 51.16         29 
 51.18         42 
 51.2          37 
 51.22         36 
 51.24         31 
 51.26         28 
 51.28         28 
 51.3          26 
 51.32         30 
 51.34         31 
 51.36         26 
 51.38         31 
 51.4          38 
 51.42         44 
 51.44         31 
 51.46         38 
 51.48         36 
 51.5          22 
 51.52         50 
 51.54         31 
 51.56         38 
 51.58         29 
 51.6          35 
 51.62         27 
 51.64         34 
 51.66         30 
 51.68         25 
 51.7          28 
 51.72         36 
 51.74         24 
 51.76         32 
 51.78         22 
 51.8          33 
 51.82         29 
 51.84         26 
 51.86         31 
 51.88         26 
 51.9          28 
 51.92         24 
 51.94         45 
 51.96         36 
 51.98         31 
 52            32 
 52.02         31 
 52.04         31 
 52.06         29 
 52.08         40 
 52.1          31 
 52.12         29 
 52.14         25 
 52.16         26 
 52.18         46 
 52.2          31 
 52.22         25 
 52.24         26 
 52.26         38 
 52.28         39 
 52.3          41 
 52.32         30 
 52.34         38 
 52.36         39 
 52.38         31 
 52.4          34 
 52.42         33 
 52.44         37 
 52.46         35 
 52.48         48 
 52.5          33 
 52.52         32 
 52.54         26 
 52.56         24 
 52.58         35 
 52.6          30 
 52.62         21 
 52.64         19 
 52.66         41 
 52.68         31 
 52.7          36 
 52.72         36 
 52.74         24 
 52.76         32 
 52.78         38 
 52.8          29 
 52.82         29 
 52.84         29 
 52.86         33 
 52.88         32 
 52.9          39 
 52.92         25 
 52.94         34 
 52.96         26 
 52.98         33 
 53            35 
 53.02         27 
 53.04         34 
 53.06         29 
 53.08         38 
 53.1          29 
 53.12         35 
 53.14         27 
 53.16         41 
 53.18         35 
 53.2          33 
 53.22         37 
 53.24         27 
 53.26         32 
 53.28         29 
 53.3          24 
 53.32         32 
 53.34         39 
 53.36         35 
 53.38         33 
 53.4          37 
 53.42         24 
 53.44         27 
 53.46         31 
 53.48         31 
 53.5          26 
 53.52         32 
 53.54         30 
 53.56         28 
 53.58         43 
 53.6          38 
 53.62         32 
 53.64         25 
 53.66         26 
 53.68         27 
 53.7          31 
 53.72         31 
 53.74         37 
 53.76         42 
 53.78         33 
 53.8          24 
 53.82         40 
 53.84         34 
 53.86         39 
 53.88         36 
 53.9          41 
 53.92         37 
 53.94         43 
 53.96         33 
 53.98         38 
 54            27 
 54.02         45 
 54.04         33 
 54.06         44 
 54.08         44 
 54.1          38 
 54.12         33 
 54.14         37 
 54.16         31 
 54.18         30 
 54.2          34 
 54.22         37 
 54.24         35 
 54.26         36 
 54.28         44 
 54.3          34 
 54.32         45 
 54.34         41 
 54.36         36 
 54.38         43 
 54.4          37 
 54.42         44 
 54.44         54 
 54.46         46 
 54.48         32 
 54.5          36 
 54.52         36 
 54.54         39 
 54.56         40 
 54.58         43 
 54.6          52 
 54.62         54 
 54.64         40 
 54.66         49 
 54.68         56 
 54.7          51 
 54.72         60 
 54.74         65 
 54.76         58 
 54.78         41 
 54.8          65 
 54.82         59 
 54.84         63 
 54.86         47 
 54.88         59 
 54.9          61 
 54.92         43 
 54.94         49 
 54.96         51 
 54.98         39 
 55            26 
 55.02         32 
 55.04         60 
 55.06         41 
 55.08         46 
 55.1          28 
 55.12         36 
 55.14         35 
 55.16         36 
 55.18         38 
 55.2          44 
 55.22         29 
 55.24         24 
 55.26         26 
 55.28         30 
 55.3          33 
 55.32         24 
 55.34         31 
 55.36         32 
 55.38         41 
 55.4          39 
 55.42         45 
 55.44         32 
 55.46         45 
 55.48         34 
 55.5          32 
 55.52         42 
 55.54         24 
 55.56         36 
 55.58         33 
 55.6          26 
 55.62         34 
 55.64         25 
 55.66         41 
 55.68         35 
 55.7          30 
 55.72         35 
 55.74         21 
 55.76         30 
 55.78         39 
 55.8          34 
 55.82         50 
 55.84         40 
 55.86         38 
 55.88         37 
 55.9          26 
 55.92         21 
 55.94         28 
 55.96         32 
 55.98         24 
 56            20 
 56.02         34 
 56.04         28 
 56.06         37 
 56.08         34 
 56.1          38 
 56.12         32 
 56.14         39 
 56.16         15 
 56.18         28 
 56.2          29 
 56.22         33 
 56.24         36 
 56.26         31 
 56.28         24 
 56.3          32 
 56.32         39 
 56.34         37 
 56.36         34 
 56.38         28 
 56.4          32 
 56.42         30 
 56.44         39 
 56.46         36 
 56.48         33 
 56.5          29 
 56.52         32 
 56.54         28 
 56.56         35 
 56.58         31 
 56.6          37 
 56.62         31 
 56.64         35 
 56.66         29 
 56.68         34 
 56.7          30 
 56.72         42 
 56.74         30 
 56.76         42 
 56.78         37 
 56.8          31 
 56.82         40 
 56.84         32 
 56.86         37 
 56.88         44 
 56.9          45 
 56.92         34 
 56.94         30 
 56.96         35 
 56.98         30 
 57            30 
 57.02         42 
 57.04         40 
 57.06         34 
 57.08         33 
 57.1          26 
 57.12         37 
 57.14         33 
 57.16         24 
 57.18         47 
 57.2          39 
 57.22         45 
 57.24         54 
 57.26         46 
 57.28         36 
 57.3          40 
 57.32         49 
 57.34         41 
 57.36         49 
 57.38         38 
 57.4          44 
 57.42         41 
 57.44         48 
 57.46         47 
 57.48         43 
 57.5          47 
 57.52         42 
 57.54         39 
 57.56         46 
 57.58         69 
 57.6          39 
 57.62         69 
 57.64         63 
 57.66         66 
 57.68         54 
 57.7          71 
 57.72         67 
 57.74         73 
 57.76         62 
 57.78         86 
 57.8          72 
 57.82         75 
 57.84         87 
 57.86         93 
 57.88         97 
 57.9          106 
 57.92         98 
 57.94         87 
 57.96         122 
 57.98         136 
 58            110 
 58.02         145 
 58.04         175 
 58.06         176 
 58.08         204 
 58.1          226 
 58.12         245 
 58.14         301 
 58.16         313 
 58.18         375 
 58.2          399 
 58.22         452 
 58.24         522 
 58.26         567 
 58.28         630 
 58.3          719 
 58.32         806 
 58.34         941 
 58.36         1049 
 58.38         1139 
 58.4          1256 
 58.42         1301 
 58.44         1353 
 58.46         1355 
 58.48         1451 
 58.5          1388 
 58.52         1316 
 58.54         1222 
 58.56         1172 
 58.58         1089 
 58.6          967 
 58.62         848 
 58.64         756 
 58.66         685 
 58.68         562 
 58.7          474 
 58.72         407 
 58.74         323 
 58.76         242 
 58.78         224 
 58.8          223 
 58.82         138 
 58.84         133 
 58.86         115 
 58.88         104 
 58.9          81 
 58.92         85 
 58.94         73 
 58.96         75 
 58.98         61 
 59            57 
 59.02         57 
 59.04         59 
 59.06         59 
 59.08         65 
 59.1          51 
 59.12         47 
 59.14         41 
 59.16         40 
 59.18         70 
 59.2          63 
 59.22         62 
 59.24         47 
 59.26         34 
 59.28         55 
 59.3          48 
 59.32         68 
 59.34         36 
 59.36         42 
 59.38         40 
 59.4          51 
 59.42         44 
 59.44         50 
 59.46         54 
 59.48         39 
 59.5          41 
 59.52         43 
 59.54         48 
 59.56         39 
 59.58         55 
 59.6          51 
 59.62         41 
 59.64         39 
 59.66         30 
 59.68         43 
 59.7          45 
 59.72         43 
 59.74         42 
 59.76         42 
 59.78         50 
 59.8          44 
 59.82         37 
 59.84         49 
 59.86         40 
 59.88         40 
 59.9          47 
 59.92         34 
 59.94         56 
 59.96         32 
 59.98         44 
 60            49 
 60.02         44 
 60.04         43 
 60.06         43 
 60.08         41 
 60.1          49 
 60.12         28 
 60.14         51 
 60.16         47 
 60.18         45 
 60.2          33 
 60.22         40 
 60.24         45 
 60.26         40 
 60.28         40 
 60.3          31 
 60.32         37 
 60.34         35 
 60.36         53 
 60.38         42 
 60.4          38 
 60.42         37 
 60.44         42 
 60.46         41 
 60.48         30 
 60.5          37 
 60.52         34 
 60.54         26 
 60.56         33 
 60.58         39 
 60.6          34 
 60.62         29 
 60.64         29 
 60.66         47 
 60.68         33 
 60.7          24 
 60.72         36 
 60.74         36 
 60.76         24 
 60.78         40 
 60.8          35 
 60.82         26 
 60.84         33 
 60.86         29 
 60.88         30 
 60.9          28 
 60.92         28 
 60.94         35 
 60.96         34 
 60.98         27 
 61            24 
 61.02         34 
 61.04         20 
 61.06         43 
 61.08         23 
 61.1          27 
 61.12         37 
 61.14         29 
 61.16         34 
 61.18         36 
 61.2          34 
 61.22         38 
 61.24         35 
 61.26         26 
 61.28         45 
 61.3          43 
 61.32         33 
 61.34         28 
 61.36         35 
 61.38         26 
 61.4          35 
 61.42         30 
 61.44         35 
 61.46         31 
 61.48         25 
 61.5          41 
 61.52         33 
 61.54         28 
 61.56         29 
 61.58         40 
 61.6          31 
 61.62         31 
 61.64         31 
 61.66         36 
 61.68         38 
 61.7          29 
 61.72         26 
 61.74         35 
 61.76         34 
 61.78         32 
 61.8          35 
 61.82         30 
 61.84         37 
 61.86         40 
 61.88         37 
 61.9          27 
 61.92         39 
 61.94         33 
 61.96         27 
 61.98         29 
 62            36 
 62.02         25 
 62.04         45 
 62.06         33 
 62.08         42 
 62.1          28 
 62.12         32 
 62.14         40 
 62.16         33 
 62.18         44 
 62.2          30 
 62.22         29 
 62.24         28 
 62.26         36 
 62.28         32 
 62.3          34 
 62.32         44 
 62.34         28 
 62.36         35 
 62.38         35 
 62.4          43 
 62.42         31 
 62.44         34 
 62.46         32 
 62.48         25 
 62.5          43 
 62.52         36 
 62.54         35 
 62.56         32 
 62.58         43 
 62.6          42 
 62.62         24 
 62.64         35 
 62.66         33 
 62.68         35 
 62.7          41 
 62.72         36 
 62.74         53 
 62.76         50 
 62.78         43 
 62.8          33 
 62.82         41 
 62.84         40 
 62.86         38 
 62.88         31 
 62.9          40 
 62.92         51 
 62.94         47 
 62.96         33 
 62.98         34 
 63            55 
 63.02         37 
 63.04         37 
 63.06         50 
 63.08         50 
 63.1          49 
 63.12         46 
 63.14         55 
 63.16         60 
 63.18         67 
 63.2          72 
 63.22         57 
 63.24         53 
 63.26         65 
 63.28         76 
 63.3          59 
 63.32         67 
 63.34         78 
 63.36         72 
 63.38         85 
 63.4          75 
 63.42         83 
 63.44         72 
 63.46         90 
 63.48         90 
 63.5          101 
 63.52         99 
 63.54         88 
 63.56         89 
 63.58         103 
 63.6          121 
 63.62         121 
 63.64         123 
 63.66         141 
 63.68         150 
 63.7          154 
 63.72         174 
 63.74         189 
 63.76         231 
 63.78         218 
 63.8          244 
 63.82         267 
 63.84         324 
 63.86         390 
 63.88         378 
 63.9          418 
 63.92         455 
 63.94         479 
 63.96         554 
 63.98         634 
 64            668 
 64.02         791 
 64.04         909 
 64.06         1005 
 64.08         1175 
 64.1          1259 
 64.12         1410 
 64.14         1644 
 64.16         1734 
 64.18         1875 
 64.2          1983 
 64.22         2001 
 64.24         2033 
 64.26         2099 
 64.28         1954 
 64.3          1931 
 64.32         1753 
 64.34         1620 
 64.36         1481 
 64.38         1367 
 64.4          1287 
 64.42         1159 
 64.44         1029 
 64.46         872 
 64.48         799 
 64.5          676 
 64.52         542 
 64.54         458 
 64.56         368 
 64.58         289 
 64.6          233 
 64.62         196 
 64.64         178 
 64.66         126 
 64.68         132 
 64.7          99 
 64.72         91 
 64.74         94 
 64.76         86 
 64.78         67 
 64.8          79 
 64.82         82 
 64.84         79 
 64.86         61 
 64.88         67 
 64.9          60 
 64.92         48 
 64.94         63 
 64.96         65 
 64.98         53 
 65            47 
 65.02         57 
 65.04         47 
 65.06         60 
 65.08         55 
 65.1          49 
 65.12         48 
 65.14         38 
 65.16         50 
 65.18         50 
 65.2          37 
 65.22         37 
 65.24         42 
 65.26         32 
 65.28         36 
 65.3          31 
 65.32         40 
 65.34         29 
 65.36         50 
 65.38         38 
 65.4          40 
 65.42         40 
 65.44         35 
 65.46         43 
 65.48         40 
 65.5          47 
 65.52         31 
 65.54         32 
 65.56         31 
 65.58         38 
 65.6          38 
 65.62         33 
 65.64         33 
 65.66         35 
 65.68         38 
 65.7          40 
 65.72         44 
 65.74         33 
 65.76         30 
 65.78         35 
 65.8          45 
 65.82         38 
 65.84         32 
 65.86         31 
 65.88         49 
 65.9          30 
 65.92         34 
 65.94         38 
 65.96         31 
 65.98         29 
 66            37 
 66.02         25 
 66.04         30 
 66.06         29 
 66.08         39 
 66.1          33 
 66.12         32 
 66.14         32 
 66.16         34 
 66.18         40 
 66.2          30 
 66.22         35 
 66.24         40 
 66.26         35 
 66.28         38 
 66.3          37 
 66.32         38 
 66.34         35 
 66.36         44 
 66.38         38 
 66.4          31 
 66.42         41 
 66.44         45 
 66.46         30 
 66.48         33 
 66.5          38 
 66.52         20 
 66.54         35 
 66.56         31 
 66.58         31 
 66.6          32 
 66.62         46 
 66.64         34 
 66.66         38 
 66.68         22 
 66.7          35 
 66.72         42 
 66.74         49 
 66.76         36 
 66.78         43 
 66.8          46 
 66.82         48 
 66.84         47 
 66.86         41 
 66.88         49 
 66.9          38 
 66.92         49 
 66.94         53 
 66.96         58 
 66.98         60 
 67            46 
 67.02         76 
 67.04         68 
 67.06         64 
 67.08         82 
 67.1          90 
 67.12         88 
 67.14         94 
 67.16         117 
 67.18         130 
 67.2          136 
 67.22         151 
 67.24         169 
 67.26         173 
 67.28         172 
 67.3          232 
 67.32         263 
 67.34         219 
 67.36         319 
 67.38         363 
 67.4          382 
 67.42         416 
 67.44         452 
 67.46         506 
 67.48         554 
 67.5          598 
 67.52         660 
 67.54         712 
 67.56         707 
 67.58         756 
 67.6          664 
 67.62         652 
 67.64         651 
 67.66         601 
 67.68         538 
 67.7          507 
 67.72         489 
 67.74         398 
 67.76         401 
 67.78         362 
 67.8          311 
 67.82         286 
 67.84         273 
 67.86         238 
 67.88         178 
 67.9          147 
 67.92         160 
 67.94         104 
 67.96         91 
 67.98         83 
 68            89 
 68.02         72 
 68.04         78 
 68.06         51 
 68.08         51 
 68.1          54 
 68.12         49 
 68.14         45 
 68.16         44 
 68.18         35 
 68.2          40 
 68.22         46 
 68.24         49 
 68.26         33 
 68.28         36 
 68.3          43 
 68.32         49 
 68.34         37 
 68.36         28 
 68.38         43 
 68.4          36 
 68.42         30 
 68.44         40 
 68.46         40 
 68.48         40 
 68.5          33 
 68.52         45 
 68.54         37 
 68.56         35 
 68.58         33 
 68.6          25 
 68.62         25 
 68.64         31 
 68.66         32 
 68.68         35 
 68.7          33 
 68.72         38 
 68.74         47 
 68.76         31 
 68.78         26 
 68.8          20 
 68.82         22 
 68.84         21 
 68.86         30 
 68.88         28 
 68.9          33 
 68.92         26 
 68.94         27 
 68.96         25 
 68.98         32 
 69            41 
 69.02         36 
 69.04         32 
 69.06         35 
 69.08         22 
 69.1          21 
 69.12         31 
 69.14         32 
 69.16         25 
 69.18         19 
 69.2          48 
 69.22         28 
 69.24         35 
 69.26         22 
 69.28         30 
 69.3          27 
 69.32         31 
 69.34         16 
 69.36         30 
 69.38         31 
 69.4          31 
 69.42         18 
 69.44         27 
 69.46         31 
 69.48         24 
 69.5          28 
 69.52         26 
 69.54         33 
 69.56         27 
 69.58         29 
 69.6          22 
 69.62         30 
 69.64         25 
 69.66         16 
 69.68         29 
 69.7          21 
 69.72         24 
 69.74         32 
 69.76         30 
 69.78         32 
 69.8          28 
 69.82         24 
 69.84         27 
 69.86         27 
 69.88         17 
 69.9          20 
 69.92         20 
 69.94         28 
 69.96         17 
 69.98         31 
 70            29 
 70.02         23 
 70.04         31 
 70.06         22 
 70.08         17 
 70.1          44 
 70.12         27 
 70.14         23 
 70.16         24 
 70.18         29 
 70.2          23 
 70.22         21 
 70.24         30 
 70.26         21 
 70.28         20 
 70.3          19 
 70.32         24 
 70.34         14 
 70.36         18 
 70.38         23 
 70.4          24 
 70.42         26 
 70.44         19 
 70.46         26 
 70.48         27 
 70.5          30 
 70.52         32 
 70.54         26 
 70.56         28 
 70.58         21 
 70.6          30 
 70.62         29 
 70.64         21 
 70.66         27 
 70.68         33 
 70.7          23 
 70.72         19 
 70.74         26 
 70.76         31 
 70.78         25 
 70.8          34 
 70.82         21 
 70.84         32 
 70.86         21 
 70.88         27 
 70.9          32 
 70.92         28 
 70.94         29 
 70.96         20 
 70.98         27 
 71            21 
 71.02         24 
 71.04         18 
 71.06         20 
 71.08         20 
 71.1          23 
 71.12         24 
 71.14         29 
 71.16         26 
 71.18         28 
 71.2          20 
 71.22         27 
 71.24         35 
 71.26         29 
 71.28         21 
 71.3          25 
 71.32         25 
 71.34         22 
 71.36         34 
 71.38         23 
 71.4          27 
 71.42         27 
 71.44         29 
 71.46         15 
 71.48         15 
 71.5          27 
 71.52         28 
 71.54         21 
 71.56         21 
 71.58         21 
 71.6          21 
 71.62         26 
 71.64         39 
 71.66         28 
 71.68         25 
 71.7          21 
 71.72         24 
 71.74         27 
 71.76         20 
 71.78         29 
 71.8          28 
 71.82         29 
 71.84         27 
 71.86         23 
 71.88         21 
 71.9          29 
 71.92         23 
 71.94         22 
 71.96         22 
 71.98         18 
 72            27 
 72.02         25 
 72.04         28 
 72.06         22 
 72.08         24 
 72.1          28 
 72.12         22 
 72.14         30 
 72.16         31 
 72.18         21 
 72.2          29 
 72.22         25 
 72.24         26 
 72.26         18 
 72.28         33 
 72.3          26 
 72.32         29 
 72.34         18 
 72.36         34 
 72.38         27 
 72.4          20 
 72.42         27 
 72.44         27 
 72.46         24 
 72.48         21 
 72.5          22 
 72.52         25 
 72.54         26 
 72.56         26 
 72.58         18 
 72.6          29 
 72.62         24 
 72.64         28 
 72.66         31 
 72.68         30 
 72.7          27 
 72.72         35 
 72.74         35 
 72.76         46 
 72.78         23 
 72.8          29 
 72.82         37 
 72.84         26 
 72.86         31 
 72.88         29 
 72.9          35 
 72.92         28 
 72.94         27 
 72.96         23 
 72.98         29 
 73            24 
 73.02         25 
 73.04         23 
 73.06         27 
 73.08         22 
 73.1          38 
 73.12         32 
 73.14         24 
 73.16         29 
 73.18         33 
 73.2          27 
 73.22         28 
 73.24         33 
 73.26         27 
 73.28         18 
 73.3          28 
 73.32         24 
 73.34         25 
 73.36         21 
 73.38         34 
 73.4          17 
 73.42         18 
 73.44         25 
 73.46         30 
 73.48         34 
 73.5          24 
 73.52         29 
 73.54         31 
 73.56         36 
 73.58         30 
 73.6          19 
 73.62         27 
 73.64         18 
 73.66         30 
 73.68         26 
 73.7          19 
 73.72         24 
 73.74         29 
 73.76         20 
 73.78         26 
 73.8          29 
 73.82         22 
 73.84         22 
 73.86         21 
 73.88         22 
 73.9          15 
 73.92         27 
 73.93999      30 
 73.96         22 
 73.98         30 
 74            28 
 74.02         23 
 74.04         20 
 74.06         28 
 74.08         23 
 74.1          23 
 74.12         25 
 74.14         21 
 74.16         17 
 74.18         27 
 74.2          28 
 74.22         27 
 74.24         24 
 74.26         39 
 74.28         29 
 74.3          32 
 74.32         23 
 74.34         22 
 74.36         27 
 74.38         20 
 74.4          27 
 74.42         25 
 74.43999      24 
 74.46         19 
 74.48         28 
 74.5          24 
 74.52         29 
 74.54         32 
 74.56         29 
 74.58         22 
 74.6          22 
 74.62         37 
 74.64         23 
 74.66         31 
 74.68         31 
 74.7          32 
 74.72         24 
 74.74         32 
 74.76         25 
 74.78         38 
 74.8          30 
 74.82         23 
 74.84         29 
 74.86         26 
 74.88         26 
 74.9          27 
 74.92         34 
 74.93999      26 
 74.96         28 
 74.98         30 
 75            31 
