LNMO 800°C Ofen  Original Data
 3151 
 12            335 
 12.02         345 
 12.04         368 
 12.06         362 
 12.08         345 
 12.1          398 
 12.12         376 
 12.14         349 
 12.16         373 
 12.18         306 
 12.2          378 
 12.22         339 
 12.24         372 
 12.26         356 
 12.28         367 
 12.3          350 
 12.32         363 
 12.34         382 
 12.36         375 
 12.38         393 
 12.4          368 
 12.42         391 
 12.44         393 
 12.46         369 
 12.48         373 
 12.5          383 
 12.52         333 
 12.54         343 
 12.56         358 
 12.58         410 
 12.6          362 
 12.62         378 
 12.64         345 
 12.66         395 
 12.68         393 
 12.7          347 
 12.72         332 
 12.74         383 
 12.76         401 
 12.78         356 
 12.8          410 
 12.82         351 
 12.84         349 
 12.86         336 
 12.88         349 
 12.9          352 
 12.92         382 
 12.94         384 
 12.96         413 
 12.98         369 
 13            378 
 13.02         390 
 13.04         379 
 13.06         408 
 13.08         363 
 13.1          372 
 13.12         323 
 13.14         359 
 13.16         338 
 13.18         390 
 13.2          379 
 13.22         365 
 13.24         364 
 13.26         379 
 13.28         357 
 13.3          349 
 13.32         379 
 13.34         350 
 13.36         364 
 13.38         347 
 13.4          350 
 13.42         328 
 13.44         373 
 13.46         329 
 13.48         343 
 13.5          314 
 13.52         341 
 13.54         351 
 13.56         369 
 13.58         316 
 13.6          292 
 13.62         355 
 13.64         314 
 13.66         366 
 13.68         279 
 13.7          338 
 13.72         258 
 13.74         340 
 13.76         320 
 13.78         355 
 13.8          292 
 13.82         271 
 13.84         305 
 13.86         318 
 13.88         338 
 13.9          323 
 13.92         327 
 13.94         275 
 13.96         336 
 13.98         315 
 14            271 
 14.02         312 
 14.04         314 
 14.06         300 
 14.08         290 
 14.1          287 
 14.12         311 
 14.14         297 
 14.16         277 
 14.18         303 
 14.2          286 
 14.22         303 
 14.24         293 
 14.26         302 
 14.28         266 
 14.3          321 
 14.32         293 
 14.34         243 
 14.36         261 
 14.38         267 
 14.4          279 
 14.42         265 
 14.44         268 
 14.46         239 
 14.48         289 
 14.5          244 
 14.52         290 
 14.54         269 
 14.56         277 
 14.58         245 
 14.6          279 
 14.62         264 
 14.64         276 
 14.66         256 
 14.68         280 
 14.7          244 
 14.72         245 
 14.74         255 
 14.76         229 
 14.78         254 
 14.8          262 
 14.82         233 
 14.84         242 
 14.86         252 
 14.88         254 
 14.9          212 
 14.92         222 
 14.94         211 
 14.96         237 
 14.98         237 
 15            221 
 15.02         247 
 15.04         215 
 15.06         236 
 15.08         249 
 15.1          232 
 15.12         190 
 15.14         224 
 15.16         204 
 15.18         241 
 15.2          204 
 15.22         218 
 15.24         235 
 15.26         225 
 15.28         231 
 15.3          224 
 15.32         222 
 15.34         221 
 15.36         239 
 15.38         192 
 15.4          206 
 15.42         211 
 15.44         204 
 15.46         193 
 15.48         178 
 15.5          218 
 15.52         170 
 15.54         197 
 15.56         194 
 15.58         198 
 15.6          203 
 15.62         205 
 15.64         198 
 15.66         196 
 15.68         224 
 15.7          187 
 15.72         209 
 15.74         202 
 15.76         194 
 15.78         176 
 15.8          214 
 15.82         188 
 15.84         176 
 15.86         176 
 15.88         168 
 15.9          176 
 15.92         162 
 15.94         188 
 15.96         184 
 15.98         174 
 16            183 
 16.02         178 
 16.04         166 
 16.06         182 
 16.08         178 
 16.1          179 
 16.12         172 
 16.14         179 
 16.16         166 
 16.18         213 
 16.2          151 
 16.22         167 
 16.24         167 
 16.26         179 
 16.28         159 
 16.3          165 
 16.32         184 
 16.34         176 
 16.36         150 
 16.38         186 
 16.4          190 
 16.42         201 
 16.44         176 
 16.46         176 
 16.48         164 
 16.5          166 
 16.52         174 
 16.54         152 
 16.56         170 
 16.58         155 
 16.6          165 
 16.62         172 
 16.64         134 
 16.66         163 
 16.68         170 
 16.7          160 
 16.72         154 
 16.74         148 
 16.76         166 
 16.78         148 
 16.8          155 
 16.82         133 
 16.84         177 
 16.86         160 
 16.88         143 
 16.9          159 
 16.92         152 
 16.94         170 
 16.96         161 
 16.98         139 
 17            142 
 17.02         150 
 17.04         136 
 17.06         161 
 17.08         162 
 17.1          150 
 17.12         149 
 17.14         157 
 17.16         147 
 17.18         148 
 17.2          165 
 17.22         171 
 17.24         142 
 17.26         161 
 17.28         129 
 17.3          129 
 17.32         138 
 17.34         144 
 17.36         145 
 17.38         135 
 17.4          141 
 17.42         152 
 17.44         136 
 17.46         151 
 17.48         146 
 17.5          116 
 17.52         120 
 17.54         140 
 17.56         129 
 17.58         144 
 17.6          145 
 17.62         136 
 17.64         134 
 17.66         153 
 17.68         127 
 17.7          137 
 17.72         143 
 17.74         137 
 17.76         137 
 17.78         142 
 17.8          140 
 17.82         135 
 17.84         163 
 17.86         167 
 17.88         145 
 17.9          152 
 17.92         159 
 17.94         139 
 17.96         166 
 17.98         171 
 18            154 
 18.02         171 
 18.04         186 
 18.06         191 
 18.08         178 
 18.1          196 
 18.12         193 
 18.14         216 
 18.16         223 
 18.18         272 
 18.2          298 
 18.22         303 
 18.24         317 
 18.26         349 
 18.28         356 
 18.3          431 
 18.32         398 
 18.34         460 
 18.36         504 
 18.38         536 
 18.4          572 
 18.42         655 
 18.44         701 
 18.46         781 
 18.48         824 
 18.5          880 
 18.52         922 
 18.54         1009 
 18.56         1094 
 18.58         1094 
 18.6          1254 
 18.62         1291 
 18.64         1366 
 18.66         1451 
 18.68         1632 
 18.7          1732 
 18.72         1842 
 18.74         1965 
 18.76         2224 
 18.78         2380 
 18.8          2457 
 18.82         2503 
 18.84         2581 
 18.86         2462 
 18.88         2267 
 18.9          1892 
 18.92         1390 
 18.94         1029 
 18.96         752 
 18.98         448 
 19            299 
 19.02         232 
 19.04         173 
 19.06         152 
 19.08         142 
 19.1          117 
 19.12         111 
 19.14         131 
 19.16         111 
 19.18         129 
 19.2          110 
 19.22         124 
 19.24         108 
 19.26         108 
 19.28         107 
 19.3          125 
 19.32         110 
 19.34         106 
 19.36         104 
 19.38         106 
 19.4          105 
 19.42         104 
 19.44         121 
 19.46         90 
 19.48         102 
 19.5          94 
 19.52         108 
 19.54         107 
 19.56         109 
 19.58         87 
 19.6          77 
 19.62         94 
 19.64         88 
 19.66         118 
 19.68         93 
 19.7          103 
 19.72         91 
 19.74         112 
 19.76         106 
 19.78         102 
 19.8          95 
 19.82         103 
 19.84         84 
 19.86         84 
 19.88         100 
 19.9          96 
 19.92         98 
 19.94         90 
 19.96         94 
 19.98         103 
 20            92 
 20.02         102 
 20.04         91 
 20.06         90 
 20.08         101 
 20.1          94 
 20.12         88 
 20.14         87 
 20.16         94 
 20.18         77 
 20.2          82 
 20.22         105 
 20.24         97 
 20.26         85 
 20.28         90 
 20.3          97 
 20.32         87 
 20.34         76 
 20.36         78 
 20.38         83 
 20.4          113 
 20.42         112 
 20.44         93 
 20.46         83 
 20.48         86 
 20.5          76 
 20.52         94 
 20.54         60 
 20.56         74 
 20.58         88 
 20.6          78 
 20.62         86 
 20.64         90 
 20.66         95 
 20.68         70 
 20.7          107 
 20.72         79 
 20.74         92 
 20.76         75 
 20.78         92 
 20.8          89 
 20.82         91 
 20.84         84 
 20.86         67 
 20.88         82 
 20.9          91 
 20.92         92 
 20.94         77 
 20.96         79 
 20.98         85 
 21            82 
 21.02         77 
 21.04         77 
 21.06         78 
 21.08         98 
 21.1          74 
 21.12         84 
 21.14         81 
 21.16         92 
 21.18         84 
 21.2          78 
 21.22         106 
 21.24         78 
 21.26         95 
 21.28         82 
 21.3          84 
 21.32         101 
 21.34         91 
 21.36         79 
 21.38         92 
 21.4          88 
 21.42         79 
 21.44         80 
 21.46         79 
 21.48         87 
 21.5          100 
 21.52         79 
 21.54         61 
 21.56         90 
 21.58         81 
 21.6          91 
 21.62         75 
 21.64         87 
 21.66         77 
 21.68         71 
 21.7          80 
 21.72         98 
 21.74         76 
 21.76         79 
 21.78         82 
 21.8          64 
 21.82         68 
 21.84         77 
 21.86         81 
 21.88         66 
 21.9          73 
 21.92         93 
 21.94         69 
 21.96         66 
 21.98         59 
 22            68 
 22.02         64 
 22.04         76 
 22.06         78 
 22.08         66 
 22.1          70 
 22.12         61 
 22.14         65 
 22.16         71 
 22.18         72 
 22.2          70 
 22.22         66 
 22.24         73 
 22.26         78 
 22.28         82 
 22.3          66 
 22.32         73 
 22.34         70 
 22.36         59 
 22.38         73 
 22.4          77 
 22.42         66 
 22.44         73 
 22.46         81 
 22.48         82 
 22.5          67 
 22.52         67 
 22.54         75 
 22.56         73 
 22.58         77 
 22.6          82 
 22.62         68 
 22.64         67 
 22.66         53 
 22.68         90 
 22.7          86 
 22.72         73 
 22.74         53 
 22.76         75 
 22.78         78 
 22.8          69 
 22.82         70 
 22.84         67 
 22.86         62 
 22.88         61 
 22.9          59 
 22.92         58 
 22.94         62 
 22.96         60 
 22.98         76 
 23            70 
 23.02         65 
 23.04         68 
 23.06         80 
 23.08         59 
 23.1          59 
 23.12         71 
 23.14         57 
 23.16         55 
 23.18         70 
 23.2          67 
 23.22         63 
 23.24         55 
 23.26         59 
 23.28         63 
 23.3          69 
 23.32         72 
 23.34         81 
 23.36         76 
 23.38         59 
 23.4          77 
 23.42         80 
 23.44         72 
 23.46         64 
 23.48         82 
 23.5          73 
 23.52         77 
 23.54         64 
 23.56         66 
 23.58         63 
 23.6          60 
 23.62         66 
 23.64         57 
 23.66         74 
 23.68         48 
 23.7          73 
 23.72         77 
 23.74         55 
 23.76         58 
 23.78         55 
 23.8          67 
 23.82         58 
 23.84         59 
 23.86         69 
 23.88         52 
 23.9          71 
 23.92         66 
 23.94         61 
 23.96         72 
 23.98         68 
 24            58 
 24.02         65 
 24.04         70 
 24.06         53 
 24.08         72 
 24.1          61 
 24.12         62 
 24.14         51 
 24.16         55 
 24.18         69 
 24.2          71 
 24.22         55 
 24.24         65 
 24.26         67 
 24.28         64 
 24.3          43 
 24.32         61 
 24.34         76 
 24.36         56 
 24.38         68 
 24.4          64 
 24.42         47 
 24.44         72 
 24.46         61 
 24.48         71 
 24.5          60 
 24.52         54 
 24.54         60 
 24.56         73 
 24.58         66 
 24.6          53 
 24.62         48 
 24.64         59 
 24.66         66 
 24.68         62 
 24.7          63 
 24.72         61 
 24.74         71 
 24.76         60 
 24.78         59 
 24.8          48 
 24.82         54 
 24.84         53 
 24.86         54 
 24.88         60 
 24.9          52 
 24.92         74 
 24.94         56 
 24.96         54 
 24.98         60 
 25            53 
 25.02         53 
 25.04         49 
 25.06         67 
 25.08         66 
 25.1          57 
 25.12         52 
 25.14         67 
 25.16         53 
 25.18         43 
 25.2          58 
 25.22         65 
 25.24         49 
 25.26         55 
 25.28         64 
 25.3          57 
 25.32         51 
 25.34         63 
 25.36         66 
 25.38         64 
 25.4          54 
 25.42         57 
 25.44         53 
 25.46         77 
 25.48         54 
 25.5          43 
 25.52         50 
 25.54         50 
 25.56         42 
 25.58         50 
 25.6          53 
 25.62         42 
 25.64         61 
 25.66         49 
 25.68         63 
 25.7          78 
 25.72         57 
 25.74         49 
 25.76         64 
 25.78         57 
 25.8          55 
 25.82         46 
 25.84         43 
 25.86         49 
 25.88         51 
 25.9          51 
 25.92         57 
 25.94         50 
 25.96         45 
 25.98         43 
 26            60 
 26.02         48 
 26.04         51 
 26.06         40 
 26.08         45 
 26.1          60 
 26.12         57 
 26.14         62 
 26.16         59 
 26.18         46 
 26.2          61 
 26.22         52 
 26.24         46 
 26.26         57 
 26.28         66 
 26.3          61 
 26.32         58 
 26.34         57 
 26.36         51 
 26.38         52 
 26.4          46 
 26.42         43 
 26.44         40 
 26.46         40 
 26.48         54 
 26.5          52 
 26.52         46 
 26.54         40 
 26.56         56 
 26.58         44 
 26.6          58 
 26.62         54 
 26.64         56 
 26.66         50 
 26.68         42 
 26.7          37 
 26.72         52 
 26.74         46 
 26.76         53 
 26.78         47 
 26.8          50 
 26.82         51 
 26.84         58 
 26.86         59 
 26.88         60 
 26.9          54 
 26.92         56 
 26.94         47 
 26.96         40 
 26.98         43 
 27            55 
 27.02         55 
 27.04         54 
 27.06         50 
 27.08         37 
 27.1          40 
 27.12         53 
 27.14         45 
 27.16         56 
 27.18         42 
 27.2          43 
 27.22         46 
 27.24         60 
 27.26         43 
 27.28         43 
 27.3          46 
 27.32         44 
 27.34         41 
 27.36         41 
 27.38         45 
 27.4          54 
 27.42         45 
 27.44         58 
 27.46         51 
 27.48         50 
 27.5          49 
 27.52         55 
 27.54         42 
 27.56         40 
 27.58         42 
 27.6          59 
 27.62         40 
 27.64         47 
 27.66         48 
 27.68         46 
 27.7          42 
 27.72         33 
 27.74         49 
 27.76         60 
 27.78         56 
 27.8          43 
 27.82         40 
 27.84         46 
 27.86         45 
 27.88         44 
 27.9          56 
 27.92         44 
 27.94         52 
 27.96         56 
 27.98         54 
 28            49 
 28.02         42 
 28.04         41 
 28.06         40 
 28.08         48 
 28.1          38 
 28.12         47 
 28.14         45 
 28.16         37 
 28.18         43 
 28.2          52 
 28.22         63 
 28.24         46 
 28.26         50 
 28.28         44 
 28.3          52 
 28.32         37 
 28.34         50 
 28.36         54 
 28.38         49 
 28.4          40 
 28.42         50 
 28.44         50 
 28.46         30 
 28.48         61 
 28.5          34 
 28.52         38 
 28.54         38 
 28.56         39 
 28.58         33 
 28.6          53 
 28.62         42 
 28.64         49 
 28.66         38 
 28.68         47 
 28.7          46 
 28.72         35 
 28.74         44 
 28.76         28 
 28.78         36 
 28.8          44 
 28.82         52 
 28.84         48 
 28.86         39 
 28.88         52 
 28.9          54 
 28.92         44 
 28.94         49 
 28.96         49 
 28.98         37 
 29            48 
 29.02         40 
 29.04         35 
 29.06         36 
 29.08         42 
 29.1          45 
 29.12         45 
 29.14         43 
 29.16         52 
 29.18         56 
 29.2          34 
 29.22         46 
 29.24         36 
 29.26         44 
 29.28         47 
 29.3          41 
 29.32         40 
 29.34         44 
 29.36         52 
 29.38         39 
 29.4          40 
 29.42         41 
 29.44         52 
 29.46         49 
 29.48         49 
 29.5          39 
 29.52         40 
 29.54         31 
 29.56         36 
 29.58         50 
 29.6          40 
 29.62         38 
 29.64         38 
 29.66         47 
 29.68         39 
 29.7          45 
 29.72         44 
 29.74         39 
 29.76         40 
 29.78         43 
 29.8          51 
 29.82         47 
 29.84         45 
 29.86         44 
 29.88         67 
 29.9          44 
 29.92         44 
 29.94         52 
 29.96         43 
 29.98         61 
 30            43 
 30.02         40 
 30.04         43 
 30.06         56 
 30.08         55 
 30.1          41 
 30.12         32 
 30.14         37 
 30.16         45 
 30.18         47 
 30.2          63 
 30.22         55 
 30.24         53 
 30.26         47 
 30.28         40 
 30.3          52 
 30.32         54 
 30.34         63 
 30.36         50 
 30.38         49 
 30.4          52 
 30.42         53 
 30.44         50 
 30.46         56 
 30.48         51 
 30.5          67 
 30.52         46 
 30.54         56 
 30.56         61 
 30.58         49 
 30.6          57 
 30.62         46 
 30.64         54 
 30.66         57 
 30.68         71 
 30.7          46 
 30.72         53 
 30.74         57 
 30.76         59 
 30.78         60 
 30.8          52 
 30.82         70 
 30.84         74 
 30.86         60 
 30.88         85 
 30.9          72 
 30.92         51 
 30.94         80 
 30.96         70 
 30.98         62 
 31            67 
 31.02         55 
 31.04         54 
 31.06         52 
 31.08         50 
 31.1          62 
 31.12         40 
 31.14         49 
 31.16         35 
 31.18         35 
 31.2          40 
 31.22         28 
 31.24         42 
 31.26         43 
 31.28         41 
 31.3          34 
 31.32         49 
 31.34         41 
 31.36         51 
 31.38         37 
 31.4          40 
 31.42         37 
 31.44         44 
 31.46         47 
 31.48         53 
 31.5          42 
 31.52         47 
 31.54         49 
 31.56         42 
 31.58         36 
 31.6          40 
 31.62         38 
 31.64         50 
 31.66         46 
 31.68         35 
 31.7          40 
 31.72         48 
 31.74         43 
 31.76         40 
 31.78         41 
 31.8          26 
 31.82         46 
 31.84         36 
 31.86         31 
 31.88         28 
 31.9          37 
 31.92         39 
 31.94         35 
 31.96         32 
 31.98         31 
 32            25 
 32.02         39 
 32.04         45 
 32.06         35 
 32.08         40 
 32.1          33 
 32.12         26 
 32.14         29 
 32.16         43 
 32.18         43 
 32.2          44 
 32.22         38 
 32.24         31 
 32.26         40 
 32.28         33 
 32.3          26 
 32.32         38 
 32.34         37 
 32.36         32 
 32.38         43 
 32.4          60 
 32.42         38 
 32.44         31 
 32.46         43 
 32.48         46 
 32.5          28 
 32.52         38 
 32.54         43 
 32.56         41 
 32.58         40 
 32.6          46 
 32.62         36 
 32.64         41 
 32.66         42 
 32.68         43 
 32.7          47 
 32.72         30 
 32.74         47 
 32.76         35 
 32.78         50 
 32.8          32 
 32.82         40 
 32.84         45 
 32.86         43 
 32.88         55 
 32.9          45 
 32.92         40 
 32.94         28 
 32.96         41 
 32.98         48 
 33            45 
 33.02         31 
 33.04         28 
 33.06         48 
 33.08         31 
 33.1          32 
 33.12         31 
 33.14         40 
 33.16         31 
 33.18         41 
 33.2          42 
 33.22         35 
 33.24         37 
 33.26         46 
 33.28         29 
 33.3          34 
 33.32         43 
 33.34         38 
 33.36         26 
 33.38         30 
 33.4          39 
 33.42         48 
 33.44         36 
 33.46         28 
 33.48         36 
 33.5          38 
 33.52         28 
 33.54         38 
 33.56         27 
 33.58         37 
 33.6          26 
 33.62         21 
 33.64         52 
 33.66         37 
 33.68         44 
 33.7          39 
 33.72         38 
 33.74         27 
 33.76         43 
 33.78         48 
 33.8          36 
 33.82         34 
 33.84         28 
 33.86         33 
 33.88         44 
 33.9          32 
 33.92         33 
 33.94         45 
 33.96         31 
 33.98         33 
 34            35 
 34.02         30 
 34.04         41 
 34.06         30 
 34.08         36 
 34.1          37 
 34.12         34 
 34.14         27 
 34.16         25 
 34.18         35 
 34.2          37 
 34.22         34 
 34.24         39 
 34.26         26 
 34.28         26 
 34.3          42 
 34.32         30 
 34.34         32 
 34.36         33 
 34.38         39 
 34.4          49 
 34.42         37 
 34.44         36 
 34.46         35 
 34.48         43 
 34.5          36 
 34.52         39 
 34.54         33 
 34.56         38 
 34.58         35 
 34.6          39 
 34.62         34 
 34.64         28 
 34.66         41 
 34.68         45 
 34.7          28 
 34.72         47 
 34.74         38 
 34.76         41 
 34.78         29 
 34.8          33 
 34.82         31 
 34.84         36 
 34.86         42 
 34.88         46 
 34.9          34 
 34.92         45 
 34.94         29 
 34.96         33 
 34.98         42 
 35            27 
 35.02         27 
 35.04         34 
 35.06         29 
 35.08         43 
 35.1          35 
 35.12         30 
 35.14         45 
 35.16         39 
 35.18         31 
 35.2          41 
 35.22         42 
 35.24         37 
 35.26         45 
 35.28         39 
 35.3          37 
 35.32         32 
 35.34         34 
 35.36         40 
 35.38         39 
 35.4          41 
 35.42         48 
 35.44         54 
 35.46         48 
 35.48         37 
 35.5          51 
 35.52         46 
 35.54         47 
 35.56         53 
 35.58         55 
 35.6          61 
 35.62         56 
 35.64         71 
 35.66         70 
 35.68         92 
 35.7          86 
 35.72         74 
 35.74         87 
 35.76         104 
 35.78         103 
 35.8          124 
 35.82         143 
 35.84         151 
 35.86         177 
 35.88         199 
 35.9          215 
 35.92         243 
 35.94         303 
 35.96         333 
 35.98         355 
 36            376 
 36.02         410 
 36.04         525 
 36.06         559 
 36.08         702 
 36.1          735 
 36.12         797 
 36.14         897 
 36.16         1044 
 36.18         1081 
 36.2          1217 
 36.22         1397 
 36.24         1500 
 36.26         1674 
 36.28         1835 
 36.3          2014 
 36.32         2077 
 36.34         2274 
 36.36         2378 
 36.38         2539 
 36.4          2618 
 36.42         2730 
 36.44         2844 
 36.46         2772 
 36.48         2784 
 36.5          2437 
 36.52         2218 
 36.54         1896 
 36.56         1622 
 36.58         1287 
 36.6          990 
 36.62         761 
 36.64         543 
 36.66         391 
 36.68         294 
 36.7          230 
 36.72         163 
 36.74         136 
 36.76         95 
 36.78         116 
 36.8          86 
 36.82         68 
 36.84         65 
 36.86         88 
 36.88         68 
 36.9          57 
 36.92         52 
 36.94         67 
 36.96         64 
 36.98         48 
 37            64 
 37.02         57 
 37.04         56 
 37.06         63 
 37.08         51 
 37.1          64 
 37.12         53 
 37.14         72 
 37.16         67 
 37.18         61 
 37.2          64 
 37.22         61 
 37.24         53 
 37.26         66 
 37.28         72 
 37.3          83 
 37.32         86 
 37.34         85 
 37.36         78 
 37.38         83 
 37.4          97 
 37.42         91 
 37.44         108 
 37.46         106 
 37.48         118 
 37.5          124 
 37.52         135 
 37.54         145 
 37.56         159 
 37.58         156 
 37.6          128 
 37.62         146 
 37.64         176 
 37.66         155 
 37.68         162 
 37.7          186 
 37.72         139 
 37.74         173 
 37.76         209 
 37.78         201 
 37.8          212 
 37.82         226 
 37.84         227 
 37.86         254 
 37.88         303 
 37.9          282 
 37.92         337 
 37.94         370 
 37.96         390 
 37.98         459 
 38            466 
 38.02         491 
 38.04         517 
 38.06         515 
 38.08         617 
 38.1          628 
 38.12         641 
 38.14         568 
 38.16         590 
 38.18         528 
 38.2          485 
 38.22         410 
 38.24         361 
 38.26         305 
 38.28         234 
 38.3          199 
 38.32         165 
 38.34         109 
 38.36         98 
 38.38         84 
 38.4          41 
 38.42         42 
 38.44         47 
 38.46         37 
 38.48         41 
 38.5          49 
 38.52         33 
 38.54         42 
 38.56         37 
 38.58         36 
 38.6          40 
 38.62         41 
 38.64         33 
 38.66         36 
 38.68         37 
 38.7          32 
 38.72         27 
 38.74         37 
 38.76         28 
 38.78         32 
 38.8          31 
 38.82         36 
 38.84         35 
 38.86         27 
 38.88         33 
 38.9          32 
 38.92         31 
 38.94         33 
 38.96         27 
 38.98         23 
 39            32 
 39.02         24 
 39.04         40 
 39.06         39 
 39.08         27 
 39.1          27 
 39.12         35 
 39.14         31 
 39.16         31 
 39.18         40 
 39.2          22 
 39.22         39 
 39.24         31 
 39.26         25 
 39.28         39 
 39.3          42 
 39.32         28 
 39.34         27 
 39.36         24 
 39.38         31 
 39.4          23 
 39.42         40 
 39.44         33 
 39.46         23 
 39.48         32 
 39.5          35 
 39.52         28 
 39.54         41 
 39.56         36 
 39.58         37 
 39.6          27 
 39.62         30 
 39.64         23 
 39.66         31 
 39.68         45 
 39.7          42 
 39.72         33 
 39.74         35 
 39.76         30 
 39.78         22 
 39.8          38 
 39.82         28 
 39.84         29 
 39.86         35 
 39.88         29 
 39.9          29 
 39.92         36 
 39.94         33 
 39.96         26 
 39.98         26 
 40            28 
 40.02         28 
 40.04         28 
 40.06         26 
 40.08         34 
 40.1          34 
 40.12         35 
 40.14         32 
 40.16         17 
 40.18         27 
 40.2          35 
 40.22         28 
 40.24         24 
 40.26         32 
 40.28         28 
 40.3          35 
 40.32         30 
 40.34         41 
 40.36         33 
 40.38         22 
 40.4          23 
 40.42         28 
 40.44         23 
 40.46         30 
 40.48         30 
 40.5          29 
 40.52         39 
 40.54         24 
 40.56         18 
 40.58         38 
 40.6          24 
 40.62         43 
 40.64         28 
 40.66         17 
 40.68         22 
 40.7          29 
 40.72         34 
 40.74         35 
 40.76         24 
 40.78         33 
 40.8          26 
 40.82         26 
 40.84         36 
 40.86         30 
 40.88         21 
 40.9          29 
 40.92         27 
 40.94         21 
 40.96         36 
 40.98         25 
 41            32 
 41.02         19 
 41.04         34 
 41.06         28 
 41.08         37 
 41.1          20 
 41.12         31 
 41.14         23 
 41.16         26 
 41.18         32 
 41.2          30 
 41.22         28 
 41.24         25 
 41.26         28 
 41.28         26 
 41.3          28 
 41.32         36 
 41.34         30 
 41.36         30 
 41.38         33 
 41.4          32 
 41.42         30 
 41.44         26 
 41.46         43 
 41.48         20 
 41.5          25 
 41.52         29 
 41.54         24 
 41.56         34 
 41.58         34 
 41.6          31 
 41.62         23 
 41.64         22 
 41.66         39 
 41.68         20 
 41.7          28 
 41.72         23 
 41.74         32 
 41.76         36 
 41.78         23 
 41.8          27 
 41.82         23 
 41.84         35 
 41.86         41 
 41.88         25 
 41.9          31 
 41.92         36 
 41.94         25 
 41.96         26 
 41.98         33 
 42            32 
 42.02         27 
 42.04         33 
 42.06         30 
 42.08         25 
 42.1          28 
 42.12         26 
 42.14         31 
 42.16         36 
 42.18         27 
 42.2          24 
 42.22         19 
 42.24         24 
 42.26         30 
 42.28         32 
 42.3          31 
 42.32         32 
 42.34         32 
 42.36         31 
 42.38         22 
 42.4          26 
 42.42         40 
 42.44         21 
 42.46         24 
 42.48         27 
 42.5          28 
 42.52         22 
 42.54         31 
 42.56         32 
 42.58         31 
 42.6          26 
 42.62         35 
 42.64         43 
 42.66         37 
 42.68         20 
 42.7          34 
 42.72         30 
 42.74         30 
 42.76         38 
 42.78         33 
 42.8          27 
 42.82         29 
 42.84         33 
 42.86         35 
 42.88         31 
 42.9          40 
 42.92         36 
 42.94         33 
 42.96         37 
 42.98         36 
 43            39 
 43.02         46 
 43.04         47 
 43.06         54 
 43.08         52 
 43.1          46 
 43.12         49 
 43.14         64 
 43.16         61 
 43.18         52 
 43.2          80 
 43.22         57 
 43.24         71 
 43.26         91 
 43.28         78 
 43.3          84 
 43.32         85 
 43.34         112 
 43.36         115 
 43.38         110 
 43.4          136 
 43.42         156 
 43.44         167 
 43.46         187 
 43.48         180 
 43.5          149 
 43.52         205 
 43.54         204 
 43.56         212 
 43.58         225 
 43.6          267 
 43.62         264 
 43.64         274 
 43.66         283 
 43.68         288 
 43.7          315 
 43.72         327 
 43.74         341 
 43.76         365 
 43.78         376 
 43.8          431 
 43.82         454 
 43.84         483 
 43.86         536 
 43.88         579 
 43.9          632 
 43.92         696 
 43.94         784 
 43.96         926 
 43.98         1026 
 44            1068 
 44.02         1139 
 44.04         1299 
 44.06         1436 
 44.08         1678 
 44.1          1811 
 44.12         1921 
 44.14         2127 
 44.16         2393 
 44.18         2575 
 44.2          2784 
 44.22         2993 
 44.24         3208 
 44.26         3368 
 44.28         3440 
 44.3          3653 
 44.32         3610 
 44.34         3485 
 44.36         3289 
 44.38         3024 
 44.4          2630 
 44.42         2262 
 44.44         1967 
 44.46         1649 
 44.48         1324 
 44.5          1086 
 44.52         814 
 44.54         601 
 44.56         471 
 44.58         317 
 44.6          256 
 44.62         197 
 44.64         154 
 44.66         134 
 44.68         138 
 44.7          110 
 44.72         89 
 44.74         78 
 44.76         85 
 44.78         72 
 44.8          85 
 44.82         85 
 44.84         55 
 44.86         61 
 44.88         59 
 44.9          51 
 44.92         52 
 44.94         60 
 44.96         62 
 44.98         51 
 45            48 
 45.02         48 
 45.04         46 
 45.06         68 
 45.08         44 
 45.1          55 
 45.12         43 
 45.14         41 
 45.16         49 
 45.18         43 
 45.2          45 
 45.22         33 
 45.24         42 
 45.26         30 
 45.28         38 
 45.3          28 
 45.32         39 
 45.34         39 
 45.36         41 
 45.38         35 
 45.4          44 
 45.42         34 
 45.44         34 
 45.46         33 
 45.48         36 
 45.5          33 
 45.52         31 
 45.54         40 
 45.56         33 
 45.58         31 
 45.6          33 
 45.62         28 
 45.64         32 
 45.66         35 
 45.68         34 
 45.7          30 
 45.72         23 
 45.74         30 
 45.76         30 
 45.78         33 
 45.8          26 
 45.82         25 
 45.84         33 
 45.86         25 
 45.88         28 
 45.9          30 
 45.92         30 
 45.94         29 
 45.96         24 
 45.98         27 
 46            22 
 46.02         28 
 46.04         24 
 46.06         35 
 46.08         24 
 46.1          30 
 46.12         21 
 46.14         15 
 46.16         29 
 46.18         47 
 46.2          18 
 46.22         26 
 46.24         34 
 46.26         16 
 46.28         31 
 46.3          19 
 46.32         26 
 46.34         31 
 46.36         34 
 46.38         29 
 46.4          33 
 46.42         22 
 46.44         35 
 46.46         30 
 46.48         27 
 46.5          29 
 46.52         30 
 46.54         30 
 46.56         27 
 46.58         18 
 46.6          23 
 46.62         24 
 46.64         26 
 46.66         21 
 46.68         26 
 46.7          27 
 46.72         28 
 46.74         35 
 46.76         44 
 46.78         24 
 46.8          19 
 46.82         28 
 46.84         24 
 46.86         28 
 46.88         24 
 46.9          27 
 46.92         28 
 46.94         29 
 46.96         28 
 46.98         24 
 47            29 
 47.02         38 
 47.04         23 
 47.06         36 
 47.08         32 
 47.1          30 
 47.12         26 
 47.14         24 
 47.16         27 
 47.18         34 
 47.2          23 
 47.22         38 
 47.24         24 
 47.26         33 
 47.28         28 
 47.3          30 
 47.32         26 
 47.34         29 
 47.36         22 
 47.38         38 
 47.4          20 
 47.42         34 
 47.44         30 
 47.46         26 
 47.48         35 
 47.5          37 
 47.52         36 
 47.54         37 
 47.56         25 
 47.58         32 
 47.6          36 
 47.62         19 
 47.64         38 
 47.66         28 
 47.68         32 
 47.7          40 
 47.72         32 
 47.74         29 
 47.76         36 
 47.78         39 
 47.8          39 
 47.82         39 
 47.84         49 
 47.86         49 
 47.88         42 
 47.9          45 
 47.92         50 
 47.94         51 
 47.96         52 
 47.98         66 
 48            74 
 48.02         79 
 48.04         80 
 48.06         96 
 48.08         82 
 48.1          93 
 48.12         84 
 48.14         136 
 48.16         131 
 48.18         173 
 48.2          177 
 48.22         181 
 48.24         238 
 48.26         245 
 48.28         259 
 48.3          271 
 48.32         331 
 48.34         321 
 48.36         352 
 48.38         439 
 48.4          511 
 48.42         490 
 48.44         564 
 48.46         549 
 48.48         627 
 48.5          655 
 48.52         688 
 48.54         680 
 48.56         649 
 48.58         587 
 48.6          594 
 48.62         479 
 48.64         446 
 48.66         369 
 48.68         305 
 48.7          267 
 48.72         225 
 48.74         187 
 48.76         140 
 48.78         102 
 48.8          88 
 48.82         60 
 48.84         67 
 48.86         63 
 48.88         50 
 48.9          43 
 48.92         51 
 48.94         41 
 48.96         38 
 48.98         42 
 49            33 
 49.02         44 
 49.04         41 
 49.06         49 
 49.08         37 
 49.1          19 
 49.12         39 
 49.14         28 
 49.16         35 
 49.18         38 
 49.2          22 
 49.22         28 
 49.24         36 
 49.26         22 
 49.28         33 
 49.3          25 
 49.32         34 
 49.34         31 
 49.36         31 
 49.38         27 
 49.4          36 
 49.42         29 
 49.44         33 
 49.46         27 
 49.48         29 
 49.5          28 
 49.52         35 
 49.54         31 
 49.56         28 
 49.58         36 
 49.6          34 
 49.62         22 
 49.64         32 
 49.66         27 
 49.68         25 
 49.7          35 
 49.72         29 
 49.74         30 
 49.76         24 
 49.78         35 
 49.8          27 
 49.82         24 
 49.84         31 
 49.86         38 
 49.88         23 
 49.9          24 
 49.92         38 
 49.94         19 
 49.96         32 
 49.98         20 
 50            30 
 50.02         32 
 50.04         27 
 50.06         31 
 50.08         31 
 50.1          37 
 50.12         34 
 50.14         27 
 50.16         47 
 50.18         40 
 50.2          30 
 50.22         39 
 50.24         30 
 50.26         26 
 50.28         25 
 50.3          24 
 50.32         33 
 50.34         30 
 50.36         35 
 50.38         33 
 50.4          34 
 50.42         28 
 50.44         22 
 50.46         35 
 50.48         29 
 50.5          34 
 50.52         23 
 50.54         32 
 50.56         32 
 50.58         27 
 50.6          23 
 50.62         40 
 50.64         27 
 50.66         33 
 50.68         31 
 50.7          28 
 50.72         32 
 50.74         25 
 50.76         33 
 50.78         19 
 50.8          23 
 50.82         28 
 50.84         25 
 50.86         29 
 50.88         32 
 50.9          26 
 50.92         26 
 50.94         25 
 50.96         17 
 50.98         22 
 51            25 
 51.02         22 
 51.04         20 
 51.06         30 
 51.08         18 
 51.1          24 
 51.12         21 
 51.14         31 
 51.16         16 
 51.18         25 
 51.2          21 
 51.22         23 
 51.24         32 
 51.26         17 
 51.28         20 
 51.3          20 
 51.32         19 
 51.34         26 
 51.36         21 
 51.38         26 
 51.4          19 
 51.42         24 
 51.44         23 
 51.46         19 
 51.48         24 
 51.5          32 
 51.52         20 
 51.54         26 
 51.56         17 
 51.58         22 
 51.6          26 
 51.62         25 
 51.64         21 
 51.66         15 
 51.68         27 
 51.7          29 
 51.72         21 
 51.74         24 
 51.76         17 
 51.78         27 
 51.8          20 
 51.82         22 
 51.84         24 
 51.86         22 
 51.88         29 
 51.9          35 
 51.92         22 
 51.94         16 
 51.96         23 
 51.98         18 
 52            16 
 52.02         30 
 52.04         21 
 52.06         19 
 52.08         22 
 52.1          13 
 52.12         35 
 52.14         26 
 52.16         26 
 52.18         14 
 52.2          27 
 52.22         19 
 52.24         23 
 52.26         15 
 52.28         20 
 52.3          34 
 52.32         29 
 52.34         21 
 52.36         20 
 52.38         33 
 52.4          25 
 52.42         25 
 52.44         23 
 52.46         22 
 52.48         24 
 52.5          20 
 52.52         25 
 52.54         26 
 52.56         25 
 52.58         18 
 52.6          24 
 52.62         18 
 52.64         21 
 52.66         23 
 52.68         17 
 52.7          22 
 52.72         29 
 52.74         22 
 52.76         21 
 52.78         27 
 52.8          16 
 52.82         33 
 52.84         16 
 52.86         23 
 52.88         24 
 52.9          28 
 52.92         24 
 52.94         32 
 52.96         18 
 52.98         18 
 53            23 
 53.02         21 
 53.04         20 
 53.06         23 
 53.08         17 
 53.1          27 
 53.12         26 
 53.14         23 
 53.16         18 
 53.18         21 
 53.2          20 
 53.22         19 
 53.24         17 
 53.26         20 
 53.28         26 
 53.3          25 
 53.32         10 
 53.34         23 
 53.36         38 
 53.38         27 
 53.4          26 
 53.42         22 
 53.44         19 
 53.46         27 
 53.48         23 
 53.5          25 
 53.52         24 
 53.54         31 
 53.56         22 
 53.58         17 
 53.6          23 
 53.62         25 
 53.64         22 
 53.66         26 
 53.68         21 
 53.7          27 
 53.72         26 
 53.74         24 
 53.76         18 
 53.78         16 
 53.8          32 
 53.82         20 
 53.84         22 
 53.86         28 
 53.88         36 
 53.9          30 
 53.92         35 
 53.94         23 
 53.96         26 
 53.98         19 
 54            36 
 54.02         26 
 54.04         26 
 54.06         21 
 54.08         26 
 54.1          23 
 54.12         28 
 54.14         19 
 54.16         25 
 54.18         35 
 54.2          23 
 54.22         35 
 54.24         21 
 54.26         24 
 54.28         32 
 54.3          26 
 54.32         24 
 54.34         26 
 54.36         29 
 54.38         42 
 54.4          26 
 54.42         24 
 54.44         22 
 54.46         30 
 54.48         23 
 54.5          30 
 54.52         20 
 54.54         22 
 54.56         29 
 54.58         25 
 54.6          25 
 54.62         28 
 54.64         24 
 54.66         25 
 54.68         27 
 54.7          22 
 54.72         24 
 54.74         20 
 54.76         31 
 54.78         32 
 54.8          33 
 54.82         23 
 54.84         30 
 54.86         31 
 54.88         21 
 54.9          29 
 54.92         36 
 54.94         23 
 54.96         25 
 54.98         25 
 55            29 
 55.02         28 
 55.04         24 
 55.06         42 
 55.08         25 
 55.1          29 
 55.12         28 
 55.14         21 
 55.16         30 
 55.18         21 
 55.2          26 
 55.22         28 
 55.24         23 
 55.26         26 
 55.28         27 
 55.3          27 
 55.32         21 
 55.34         25 
 55.36         21 
 55.38         24 
 55.4          34 
 55.42         34 
 55.44         25 
 55.46         29 
 55.48         30 
 55.5          33 
 55.52         26 
 55.54         23 
 55.56         27 
 55.58         22 
 55.6          20 
 55.62         31 
 55.64         13 
 55.66         22 
 55.68         19 
 55.7          19 
 55.72         31 
 55.74         28 
 55.76         22 
 55.78         20 
 55.8          25 
 55.82         27 
 55.84         39 
 55.86         31 
 55.88         25 
 55.9          22 
 55.92         22 
 55.94         27 
 55.96         19 
 55.98         22 
 56            25 
 56.02         28 
 56.04         13 
 56.06         26 
 56.08         30 
 56.1          25 
 56.12         29 
 56.14         25 
 56.16         24 
 56.18         22 
 56.2          23 
 56.22         17 
 56.24         30 
 56.26         26 
 56.28         31 
 56.3          17 
 56.32         25 
 56.34         19 
 56.36         26 
 56.38         20 
 56.4          32 
 56.42         30 
 56.44         29 
 56.46         16 
 56.48         20 
 56.5          28 
 56.52         17 
 56.54         19 
 56.56         24 
 56.58         29 
 56.6          28 
 56.62         28 
 56.64         28 
 56.66         32 
 56.68         27 
 56.7          28 
 56.72         23 
 56.74         27 
 56.76         24 
 56.78         26 
 56.8          24 
 56.82         32 
 56.84         27 
 56.86         27 
 56.88         17 
 56.9          31 
 56.92         29 
 56.94         28 
 56.96         28 
 56.98         28 
 57            27 
 57.02         26 
 57.04         22 
 57.06         28 
 57.08         34 
 57.1          20 
 57.12         32 
 57.14         23 
 57.16         24 
 57.18         34 
 57.2          22 
 57.22         29 
 57.24         29 
 57.26         24 
 57.28         36 
 57.3          28 
 57.32         30 
 57.34         33 
 57.36         34 
 57.38         30 
 57.4          28 
 57.42         34 
 57.44         34 
 57.46         36 
 57.48         31 
 57.5          28 
 57.52         37 
 57.54         38 
 57.56         39 
 57.58         24 
 57.6          30 
 57.62         33 
 57.64         37 
 57.66         40 
 57.68         37 
 57.7          33 
 57.72         44 
 57.74         43 
 57.76         41 
 57.78         38 
 57.8          50 
 57.82         41 
 57.84         41 
 57.86         38 
 57.88         55 
 57.9          57 
 57.92         65 
 57.94         63 
 57.96         63 
 57.98         76 
 58            66 
 58.02         62 
 58.04         73 
 58.06         85 
 58.08         87 
 58.1          109 
 58.12         120 
 58.14         120 
 58.16         117 
 58.18         131 
 58.2          158 
 58.22         170 
 58.24         209 
 58.26         222 
 58.28         258 
 58.3          274 
 58.32         319 
 58.34         341 
 58.36         389 
 58.38         435 
 58.4          475 
 58.42         527 
 58.44         606 
 58.46         693 
 58.48         725 
 58.5          857 
 58.52         913 
 58.54         960 
 58.56         1109 
 58.58         1148 
 58.6          1225 
 58.62         1280 
 58.64         1358 
 58.66         1415 
 58.68         1320 
 58.7          1228 
 58.72         1065 
 58.74         1038 
 58.76         970 
 58.78         823 
 58.8          770 
 58.82         739 
 58.84         582 
 58.86         509 
 58.88         441 
 58.9          321 
 58.92         276 
 58.94         221 
 58.96         174 
 58.98         128 
 59            115 
 59.02         87 
 59.04         92 
 59.06         68 
 59.08         63 
 59.1          58 
 59.12         55 
 59.14         57 
 59.16         50 
 59.18         60 
 59.2          42 
 59.22         45 
 59.24         50 
 59.26         37 
 59.28         37 
 59.3          38 
 59.32         33 
 59.34         53 
 59.36         41 
 59.38         38 
 59.4          47 
 59.42         43 
 59.44         32 
 59.46         37 
 59.48         32 
 59.5          36 
 59.52         36 
 59.54         38 
 59.56         34 
 59.58         32 
 59.6          30 
 59.62         24 
 59.64         34 
 59.66         28 
 59.68         30 
 59.7          43 
 59.72         46 
 59.74         32 
 59.76         42 
 59.78         19 
 59.8          29 
 59.82         39 
 59.84         21 
 59.86         28 
 59.88         34 
 59.9          29 
 59.92         29 
 59.94         29 
 59.96         28 
 59.98         30 
 60            29 
 60.02         30 
 60.04         34 
 60.06         26 
 60.08         38 
 60.1          28 
 60.12         28 
 60.14         29 
 60.16         30 
 60.18         33 
 60.2          34 
 60.22         38 
 60.24         26 
 60.26         29 
 60.28         25 
 60.3          37 
 60.32         20 
 60.34         18 
 60.36         30 
 60.38         28 
 60.4          24 
 60.42         25 
 60.44         23 
 60.46         25 
 60.48         30 
 60.5          28 
 60.52         24 
 60.54         24 
 60.56         21 
 60.58         27 
 60.6          26 
 60.62         20 
 60.64         22 
 60.66         29 
 60.68         23 
 60.7          18 
 60.72         37 
 60.74         28 
 60.76         27 
 60.78         29 
 60.8          17 
 60.82         18 
 60.84         27 
 60.86         26 
 60.88         13 
 60.9          35 
 60.92         35 
 60.94         23 
 60.96         20 
 60.98         21 
 61            33 
 61.02         23 
 61.04         28 
 61.06         18 
 61.08         21 
 61.1          17 
 61.12         23 
 61.14         20 
 61.16         25 
 61.18         20 
 61.2          33 
 61.22         27 
 61.24         15 
 61.26         19 
 61.28         26 
 61.3          23 
 61.32         19 
 61.34         23 
 61.36         35 
 61.38         24 
 61.4          31 
 61.42         25 
 61.44         16 
 61.46         27 
 61.48         23 
 61.5          21 
 61.52         30 
 61.54         17 
 61.56         14 
 61.58         13 
 61.6          30 
 61.62         27 
 61.64         20 
 61.66         35 
 61.68         20 
 61.7          32 
 61.72         28 
 61.74         29 
 61.76         22 
 61.78         29 
 61.8          19 
 61.82         22 
 61.84         28 
 61.86         28 
 61.88         22 
 61.9          28 
 61.92         23 
 61.94         40 
 61.96         27 
 61.98         33 
 62            28 
 62.02         24 
 62.04         25 
 62.06         30 
 62.08         17 
 62.1          24 
 62.12         26 
 62.14         26 
 62.16         30 
 62.18         37 
 62.2          19 
 62.22         30 
 62.24         21 
 62.26         33 
 62.28         26 
 62.3          31 
 62.32         22 
 62.34         27 
 62.36         29 
 62.38         25 
 62.4          36 
 62.42         22 
 62.44         20 
 62.46         23 
 62.48         29 
 62.5          23 
 62.52         26 
 62.54         33 
 62.56         33 
 62.58         35 
 62.6          43 
 62.62         31 
 62.64         26 
 62.66         33 
 62.68         30 
 62.7          30 
 62.72         41 
 62.74         26 
 62.76         27 
 62.78         32 
 62.8          40 
 62.82         41 
 62.84         35 
 62.86         28 
 62.88         35 
 62.9          42 
 62.92         49 
 62.94         49 
 62.96         45 
 62.98         50 
 63            67 
 63.02         61 
 63.04         63 
 63.06         66 
 63.08         51 
 63.1          61 
 63.12         66 
 63.14         64 
 63.16         62 
 63.18         74 
 63.2          86 
 63.22         79 
 63.24         74 
 63.26         99 
 63.28         88 
 63.3          92 
 63.32         108 
 63.34         103 
 63.36         107 
 63.38         129 
 63.4          116 
 63.42         108 
 63.44         114 
 63.46         98 
 63.48         123 
 63.5          130 
 63.52         105 
 63.54         114 
 63.56         122 
 63.58         89 
 63.6          125 
 63.62         111 
 63.64         122 
 63.66         106 
 63.68         118 
 63.7          106 
 63.72         117 
 63.74         129 
 63.76         124 
 63.78         114 
 63.8          128 
 63.82         136 
 63.84         131 
 63.86         134 
 63.88         155 
 63.9          147 
 63.92         169 
 63.94         184 
 63.96         209 
 63.98         213 
 64            267 
 64.02         286 
 64.04         300 
 64.06         372 
 64.08         396 
 64.1          444 
 64.12         506 
 64.14         592 
 64.16         639 
 64.18         698 
 64.2          771 
 64.22         887 
 64.24         1019 
 64.26         1138 
 64.28         1183 
 64.3          1396 
 64.32         1511 
 64.34         1632 
 64.36         1852 
 64.38         1996 
 64.4          2065 
 64.42         2225 
 64.44         2092 
 64.46         2097 
 64.48         2051 
 64.5          1989 
 64.52         1710 
 64.54         1543 
 64.56         1383 
 64.58         1356 
 64.6          1207 
 64.62         1114 
 64.64         994 
 64.66         881 
 64.68         696 
 64.7          601 
 64.72         487 
 64.74         371 
 64.76         268 
 64.78         238 
 64.8          183 
 64.82         189 
 64.84         128 
 64.86         104 
 64.88         108 
 64.9          85 
 64.92         61 
 64.94         81 
 64.96         76 
 64.98         69 
 65            67 
 65.02         52 
 65.04         51 
 65.06         55 
 65.08         53 
 65.1          49 
 65.12         50 
 65.14         53 
 65.16         41 
 65.18         35 
 65.2          44 
 65.22         39 
 65.24         39 
 65.26         45 
 65.28         34 
 65.3          34 
 65.32         35 
 65.34         35 
 65.36         41 
 65.38         22 
 65.4          31 
 65.42         35 
 65.44         38 
 65.46         36 
 65.48         43 
 65.5          26 
 65.52         30 
 65.54         29 
 65.56         39 
 65.58         31 
 65.6          27 
 65.62         23 
 65.64         28 
 65.66         39 
 65.68         34 
 65.7          30 
 65.72         26 
 65.74         37 
 65.76         27 
 65.78         36 
 65.8          26 
 65.82         22 
 65.84         28 
 65.86         28 
 65.88         22 
 65.9          16 
 65.92         38 
 65.94         33 
 65.96         32 
 65.98         21 
 66            35 
 66.02         28 
 66.04         28 
 66.06         21 
 66.08         37 
 66.1          35 
 66.12         30 
 66.14         27 
 66.16         22 
 66.18         23 
 66.2          23 
 66.22         29 
 66.24         24 
 66.26         27 
 66.28         22 
 66.3          19 
 66.32         24 
 66.34         32 
 66.36         27 
 66.38         27 
 66.4          38 
 66.42         24 
 66.44         33 
 66.46         40 
 66.48         27 
 66.5          32 
 66.52         36 
 66.54         36 
 66.56         29 
 66.58         35 
 66.6          36 
 66.62         30 
 66.64         33 
 66.66         23 
 66.68         34 
 66.7          37 
 66.72         40 
 66.74         33 
 66.76         36 
 66.78         31 
 66.8          40 
 66.82         33 
 66.84         48 
 66.86         42 
 66.88         49 
 66.9          39 
 66.92         54 
 66.94         38 
 66.96         54 
 66.98         56 
 67            39 
 67.02         38 
 67.04         54 
 67.06         42 
 67.08         44 
 67.1          54 
 67.12         61 
 67.14         47 
 67.16         53 
 67.18         48 
 67.2          81 
 67.22         72 
 67.24         69 
 67.26         83 
 67.28         76 
 67.3          98 
 67.32         118 
 67.34         129 
 67.36         123 
 67.38         158 
 67.4          157 
 67.42         177 
 67.44         222 
 67.46         232 
 67.48         235 
 67.5          289 
 67.52         320 
 67.54         325 
 67.56         371 
 67.58         414 
 67.6          477 
 67.62         529 
 67.64         566 
 67.66         622 
 67.68         722 
 67.7          777 
 67.72         810 
 67.74         875 
 67.76         855 
 67.78         901 
 67.8          796 
 67.82         830 
 67.84         751 
 67.86         772 
 67.88         629 
 67.9          623 
 67.92         562 
 67.94         528 
 67.96         474 
 67.98         439 
 68            364 
 68.02         308 
 68.04         278 
 68.06         242 
 68.08         193 
 68.1          149 
 68.12         130 
 68.14         100 
 68.16         90 
 68.18         73 
 68.2          62 
 68.22         62 
 68.24         63 
 68.26         63 
 68.28         50 
 68.3          44 
 68.32         33 
 68.34         39 
 68.36         33 
 68.38         26 
 68.4          32 
 68.42         38 
 68.44         42 
 68.46         25 
 68.48         30 
 68.5          32 
 68.52         44 
 68.54         38 
 68.56         25 
 68.58         38 
 68.6          29 
 68.62         40 
 68.64         20 
 68.66         40 
 68.68         34 
 68.7          33 
 68.72         35 
 68.74         30 
 68.76         31 
 68.78         30 
 68.8          34 
 68.82         29 
 68.84         26 
 68.86         36 
 68.88         35 
 68.9          22 
 68.92         25 
 68.94         28 
 68.96         21 
 68.98         17 
 69            29 
 69.02         22 
 69.04         25 
 69.06         29 
 69.08         24 
 69.1          31 
 69.12         24 
 69.14         21 
 69.16         30 
 69.18         20 
 69.2          28 
 69.22         20 
 69.24         24 
 69.26         15 
 69.28         27 
 69.3          22 
 69.32         28 
 69.34         24 
 69.36         11 
 69.38         21 
 69.4          16 
 69.42         31 
 69.44         27 
 69.46         24 
 69.48         27 
 69.5          26 
 69.52         24 
 69.54         22 
 69.56         23 
 69.58         25 
 69.6          21 
 69.62         24 
 69.64         34 
 69.66         19 
 69.68         19 
 69.7          28 
 69.72         29 
 69.74         19 
 69.76         14 
 69.78         21 
 69.8          22 
 69.82         15 
 69.84         21 
 69.86         20 
 69.88         24 
 69.9          20 
 69.92         17 
 69.94         23 
 69.96         19 
 69.98         22 
 70            20 
 70.02         23 
 70.04         23 
 70.06         18 
 70.08         9 
 70.1          20 
 70.12         28 
 70.14         26 
 70.16         25 
 70.18         20 
 70.2          20 
 70.22         22 
 70.24         25 
 70.26         25 
 70.28         18 
 70.3          21 
 70.32         16 
 70.34         24 
 70.36         26 
 70.38         22 
 70.4          17 
 70.42         23 
 70.44         25 
 70.46         29 
 70.48         34 
 70.5          23 
 70.52         18 
 70.54         21 
 70.56         28 
 70.58         27 
 70.6          31 
 70.62         17 
 70.64         26 
 70.66         24 
 70.68         31 
 70.7          23 
 70.72         18 
 70.74         21 
 70.76         24 
 70.78         18 
 70.8          19 
 70.82         17 
 70.84         18 
 70.86         15 
 70.88         18 
 70.9          23 
 70.92         23 
 70.94         24 
 70.96         29 
 70.98         21 
 71            22 
 71.02         26 
 71.04         15 
 71.06         29 
 71.08         20 
 71.1          25 
 71.12         24 
 71.14         22 
 71.16         21 
 71.18         16 
 71.2          22 
 71.22         26 
 71.24         25 
 71.26         26 
 71.28         19 
 71.3          21 
 71.32         21 
 71.34         15 
 71.36         22 
 71.38         28 
 71.4          23 
 71.42         15 
 71.44         22 
 71.46         20 
 71.48         16 
 71.5          20 
 71.52         20 
 71.54         21 
 71.56         21 
 71.58         19 
 71.6          19 
 71.62         24 
 71.64         12 
 71.66         26 
 71.68         18 
 71.7          28 
 71.72         21 
 71.74         21 
 71.76         24 
 71.78         20 
 71.8          19 
 71.82         16 
 71.84         24 
 71.86         19 
 71.88         19 
 71.9          23 
 71.92         22 
 71.94         25 
 71.96         19 
 71.98         20 
 72            8 
 72.02         19 
 72.04         22 
 72.06         14 
 72.08         15 
 72.1          18 
 72.12         27 
 72.14         19 
 72.16         24 
 72.18         23 
 72.2          16 
 72.22         28 
 72.24         20 
 72.26         25 
 72.28         22 
 72.3          22 
 72.32         23 
 72.34         18 
 72.36         22 
 72.38         19 
 72.4          24 
 72.42         26 
 72.44         20 
 72.46         18 
 72.48         26 
 72.5          21 
 72.52         21 
 72.54         27 
 72.56         15 
 72.58         21 
 72.6          26 
 72.62         30 
 72.64         19 
 72.66         23 
 72.68         19 
 72.7          20 
 72.72         22 
 72.74         18 
 72.76         17 
 72.78         23 
 72.8          23 
 72.82         19 
 72.84         16 
 72.86         14 
 72.88         15 
 72.9          18 
 72.92         14 
 72.94         30 
 72.96         21 
 72.98         20 
 73            18 
 73.02         26 
 73.04         23 
 73.06         20 
 73.08         27 
 73.1          11 
 73.12         27 
 73.14         23 
 73.16         16 
 73.18         26 
 73.2          18 
 73.22         20 
 73.24         31 
 73.26         18 
 73.28         24 
 73.3          19 
 73.32         25 
 73.34         31 
 73.36         32 
 73.38         18 
 73.4          28 
 73.42         21 
 73.44         16 
 73.46         19 
 73.48         19 
 73.5          19 
 73.52         24 
 73.54         26 
 73.56         21 
 73.58         13 
 73.6          23 
 73.62         20 
 73.64         21 
 73.66         18 
 73.68         18 
 73.7          27 
 73.72         27 
 73.74         15 
 73.76         16 
 73.78         21 
 73.8          28 
 73.82         24 
 73.84         24 
 73.86         27 
 73.88         17 
 73.9          17 
 73.92         25 
 73.93999      17 
 73.96         30 
 73.98         19 
 74            21 
 74.02         26 
 74.04         28 
 74.06         18 
 74.08         20 
 74.1          20 
 74.12         22 
 74.14         30 
 74.16         22 
 74.18         23 
 74.2          20 
 74.22         15 
 74.24         16 
 74.26         19 
 74.28         25 
 74.3          32 
 74.32         12 
 74.34         25 
 74.36         15 
 74.38         20 
 74.4          21 
 74.42         30 
 74.43999      15 
 74.46         17 
 74.48         23 
 74.5          16 
 74.52         17 
 74.54         24 
 74.56         14 
 74.58         20 
 74.6          28 
 74.62         28 
 74.64         28 
 74.66         23 
 74.68         21 
 74.7          19 
 74.72         27 
 74.74         19 
 74.76         25 
 74.78         26 
 74.8          19 
 74.82         14 
 74.84         25 
 74.86         24 
 74.88         21 
 74.9          29 
 74.92         30 
 74.93999      21 
 74.96         23 
 74.98         36 
 75            21 
