LNMO Pulver 2  Original Data
 3151 
 12            224 
 12.02         228 
 12.04         198 
 12.06         235 
 12.08         221 
 12.1          208 
 12.12         225 
 12.14         217 
 12.16         259 
 12.18         214 
 12.2          214 
 12.22         224 
 12.24         220 
 12.26         191 
 12.28         246 
 12.3          201 
 12.32         250 
 12.34         229 
 12.36         189 
 12.38         216 
 12.4          227 
 12.42         189 
 12.44         202 
 12.46         241 
 12.48         224 
 12.5          239 
 12.52         235 
 12.54         208 
 12.56         223 
 12.58         206 
 12.6          198 
 12.62         183 
 12.64         200 
 12.66         238 
 12.68         216 
 12.7          189 
 12.72         214 
 12.74         196 
 12.76         205 
 12.78         211 
 12.8          226 
 12.82         174 
 12.84         217 
 12.86         206 
 12.88         216 
 12.9          179 
 12.92         194 
 12.94         196 
 12.96         206 
 12.98         215 
 13            186 
 13.02         189 
 13.04         199 
 13.06         203 
 13.08         200 
 13.1          209 
 13.12         199 
 13.14         185 
 13.16         173 
 13.18         195 
 13.2          181 
 13.22         210 
 13.24         198 
 13.26         193 
 13.28         182 
 13.3          193 
 13.32         181 
 13.34         191 
 13.36         170 
 13.38         185 
 13.4          182 
 13.42         173 
 13.44         196 
 13.46         175 
 13.48         191 
 13.5          184 
 13.52         202 
 13.54         192 
 13.56         193 
 13.58         186 
 13.6          185 
 13.62         189 
 13.64         183 
 13.66         185 
 13.68         163 
 13.7          189 
 13.72         195 
 13.74         182 
 13.76         173 
 13.78         159 
 13.8          171 
 13.82         167 
 13.84         151 
 13.86         192 
 13.88         159 
 13.9          182 
 13.92         161 
 13.94         182 
 13.96         157 
 13.98         186 
 14            159 
 14.02         142 
 14.04         171 
 14.06         186 
 14.08         171 
 14.1          175 
 14.12         150 
 14.14         167 
 14.16         159 
 14.18         138 
 14.2          167 
 14.22         150 
 14.24         142 
 14.26         144 
 14.28         147 
 14.3          189 
 14.32         164 
 14.34         160 
 14.36         181 
 14.38         137 
 14.4          169 
 14.42         140 
 14.44         153 
 14.46         140 
 14.48         164 
 14.5          160 
 14.52         153 
 14.54         165 
 14.56         157 
 14.58         161 
 14.6          155 
 14.62         149 
 14.64         126 
 14.66         149 
 14.68         159 
 14.7          152 
 14.72         167 
 14.74         142 
 14.76         162 
 14.78         135 
 14.8          127 
 14.82         153 
 14.84         145 
 14.86         160 
 14.88         122 
 14.9          161 
 14.92         162 
 14.94         121 
 14.96         146 
 14.98         135 
 15            150 
 15.02         118 
 15.04         154 
 15.06         152 
 15.08         133 
 15.1          151 
 15.12         130 
 15.14         125 
 15.16         151 
 15.18         122 
 15.2          108 
 15.22         134 
 15.24         133 
 15.26         144 
 15.28         113 
 15.3          116 
 15.32         126 
 15.34         147 
 15.36         129 
 15.38         146 
 15.4          142 
 15.42         131 
 15.44         143 
 15.46         136 
 15.48         141 
 15.5          123 
 15.52         144 
 15.54         143 
 15.56         125 
 15.58         139 
 15.6          147 
 15.62         127 
 15.64         117 
 15.66         129 
 15.68         134 
 15.7          106 
 15.72         117 
 15.74         135 
 15.76         117 
 15.78         140 
 15.8          114 
 15.82         137 
 15.84         116 
 15.86         129 
 15.88         110 
 15.9          124 
 15.92         128 
 15.94         126 
 15.96         121 
 15.98         140 
 16            127 
 16.02         126 
 16.04         134 
 16.06         138 
 16.08         148 
 16.1          104 
 16.12         135 
 16.14         116 
 16.16         101 
 16.18         127 
 16.2          108 
 16.22         115 
 16.24         125 
 16.26         119 
 16.28         119 
 16.3          127 
 16.32         120 
 16.34         121 
 16.36         125 
 16.38         125 
 16.4          138 
 16.42         129 
 16.44         123 
 16.46         101 
 16.48         116 
 16.5          105 
 16.52         116 
 16.54         133 
 16.56         122 
 16.58         140 
 16.6          124 
 16.62         112 
 16.64         128 
 16.66         122 
 16.68         116 
 16.7          101 
 16.72         119 
 16.74         118 
 16.76         133 
 16.78         112 
 16.8          122 
 16.82         107 
 16.84         113 
 16.86         90 
 16.88         131 
 16.9          97 
 16.92         119 
 16.94         105 
 16.96         125 
 16.98         101 
 17            125 
 17.02         120 
 17.04         124 
 17.06         115 
 17.08         109 
 17.1          113 
 17.12         120 
 17.14         87 
 17.16         117 
 17.18         131 
 17.2          114 
 17.22         127 
 17.24         122 
 17.26         109 
 17.28         111 
 17.3          106 
 17.32         125 
 17.34         142 
 17.36         118 
 17.38         109 
 17.4          111 
 17.42         110 
 17.44         125 
 17.46         126 
 17.48         117 
 17.5          108 
 17.52         117 
 17.54         128 
 17.56         111 
 17.58         115 
 17.6          107 
 17.62         137 
 17.64         98 
 17.66         121 
 17.68         140 
 17.7          128 
 17.72         136 
 17.74         114 
 17.76         113 
 17.78         121 
 17.8          138 
 17.82         126 
 17.84         123 
 17.86         144 
 17.88         120 
 17.9          148 
 17.92         121 
 17.94         131 
 17.96         152 
 17.98         138 
 18            143 
 18.02         148 
 18.04         145 
 18.06         165 
 18.08         161 
 18.1          178 
 18.12         175 
 18.14         200 
 18.16         218 
 18.18         225 
 18.2          228 
 18.22         257 
 18.24         274 
 18.26         350 
 18.28         336 
 18.3          332 
 18.32         432 
 18.34         483 
 18.36         614 
 18.38         644 
 18.4          734 
 18.42         869 
 18.44         929 
 18.46         1135 
 18.48         1197 
 18.5          1453 
 18.52         1632 
 18.54         1939 
 18.56         2206 
 18.58         2623 
 18.6          3111 
 18.62         3735 
 18.64         4297 
 18.66         5064 
 18.68         6388 
 18.7          7481 
 18.72         9128 
 18.74         10316 
 18.76         11841 
 18.78         12757 
 18.8          12796 
 18.82         11944 
 18.84         10264 
 18.86         8003 
 18.88         5699 
 18.9          3808 
 18.92         2504 
 18.94         1675 
 18.96         1255 
 18.98         943 
 19            736 
 19.02         603 
 19.04         526 
 19.06         468 
 19.08         367 
 19.1          352 
 19.12         294 
 19.14         257 
 19.16         232 
 19.18         244 
 19.2          223 
 19.22         226 
 19.24         180 
 19.26         198 
 19.28         180 
 19.3          174 
 19.32         156 
 19.34         140 
 19.36         145 
 19.38         133 
 19.4          145 
 19.42         129 
 19.44         126 
 19.46         112 
 19.48         118 
 19.5          116 
 19.52         133 
 19.54         119 
 19.56         127 
 19.58         111 
 19.6          122 
 19.62         123 
 19.64         114 
 19.66         111 
 19.68         104 
 19.7          109 
 19.72         127 
 19.74         105 
 19.76         111 
 19.78         96 
 19.8          96 
 19.82         106 
 19.84         130 
 19.86         84 
 19.88         89 
 19.9          95 
 19.92         106 
 19.94         86 
 19.96         80 
 19.98         90 
 20            85 
 20.02         98 
 20.04         93 
 20.06         81 
 20.08         95 
 20.1          94 
 20.12         103 
 20.14         133 
 20.16         89 
 20.18         75 
 20.2          93 
 20.22         92 
 20.24         94 
 20.26         100 
 20.28         82 
 20.3          97 
 20.32         78 
 20.34         91 
 20.36         104 
 20.38         87 
 20.4          76 
 20.42         93 
 20.44         83 
 20.46         90 
 20.48         106 
 20.5          100 
 20.52         82 
 20.54         85 
 20.56         98 
 20.58         65 
 20.6          100 
 20.62         101 
 20.64         91 
 20.66         93 
 20.68         99 
 20.7          80 
 20.72         91 
 20.74         65 
 20.76         92 
 20.78         86 
 20.8          89 
 20.82         82 
 20.84         78 
 20.86         65 
 20.88         85 
 20.9          79 
 20.92         106 
 20.94         96 
 20.96         88 
 20.98         94 
 21            73 
 21.02         104 
 21.04         68 
 21.06         97 
 21.08         73 
 21.1          76 
 21.12         82 
 21.14         84 
 21.16         90 
 21.18         71 
 21.2          95 
 21.22         80 
 21.24         87 
 21.26         87 
 21.28         83 
 21.3          83 
 21.32         76 
 21.34         99 
 21.36         113 
 21.38         87 
 21.4          77 
 21.42         100 
 21.44         95 
 21.46         94 
 21.48         99 
 21.5          105 
 21.52         108 
 21.54         86 
 21.56         98 
 21.58         85 
 21.6          96 
 21.62         81 
 21.64         83 
 21.66         76 
 21.68         73 
 21.7          77 
 21.72         98 
 21.74         62 
 21.76         74 
 21.78         81 
 21.8          92 
 21.82         65 
 21.84         63 
 21.86         85 
 21.88         82 
 21.9          85 
 21.92         85 
 21.94         72 
 21.96         101 
 21.98         66 
 22            74 
 22.02         78 
 22.04         78 
 22.06         72 
 22.08         76 
 22.1          80 
 22.12         67 
 22.14         66 
 22.16         67 
 22.18         73 
 22.2          87 
 22.22         74 
 22.24         64 
 22.26         68 
 22.28         71 
 22.3          71 
 22.32         75 
 22.34         74 
 22.36         99 
 22.38         67 
 22.4          74 
 22.42         92 
 22.44         68 
 22.46         84 
 22.48         77 
 22.5          70 
 22.52         78 
 22.54         67 
 22.56         78 
 22.58         80 
 22.6          75 
 22.62         65 
 22.64         68 
 22.66         66 
 22.68         61 
 22.7          75 
 22.72         55 
 22.74         76 
 22.76         72 
 22.78         69 
 22.8          73 
 22.82         78 
 22.84         68 
 22.86         91 
 22.88         53 
 22.9          72 
 22.92         77 
 22.94         70 
 22.96         89 
 22.98         77 
 23            73 
 23.02         85 
 23.04         73 
 23.06         79 
 23.08         87 
 23.1          59 
 23.12         69 
 23.14         64 
 23.16         78 
 23.18         77 
 23.2          101 
 23.22         68 
 23.24         72 
 23.26         76 
 23.28         80 
 23.3          91 
 23.32         73 
 23.34         81 
 23.36         80 
 23.38         71 
 23.4          68 
 23.42         82 
 23.44         67 
 23.46         72 
 23.48         63 
 23.5          70 
 23.52         66 
 23.54         73 
 23.56         67 
 23.58         61 
 23.6          72 
 23.62         70 
 23.64         64 
 23.66         71 
 23.68         70 
 23.7          66 
 23.72         55 
 23.74         66 
 23.76         66 
 23.78         71 
 23.8          68 
 23.82         72 
 23.84         57 
 23.86         65 
 23.88         60 
 23.9          74 
 23.92         75 
 23.94         67 
 23.96         54 
 23.98         65 
 24            62 
 24.02         64 
 24.04         75 
 24.06         68 
 24.08         60 
 24.1          71 
 24.12         71 
 24.14         81 
 24.16         77 
 24.18         83 
 24.2          61 
 24.22         62 
 24.24         64 
 24.26         60 
 24.28         59 
 24.3          53 
 24.32         69 
 24.34         69 
 24.36         70 
 24.38         72 
 24.4          70 
 24.42         60 
 24.44         76 
 24.46         66 
 24.48         56 
 24.5          65 
 24.52         61 
 24.54         64 
 24.56         68 
 24.58         44 
 24.6          52 
 24.62         64 
 24.64         50 
 24.66         71 
 24.68         49 
 24.7          61 
 24.72         57 
 24.74         64 
 24.76         41 
 24.78         57 
 24.8          56 
 24.82         65 
 24.84         57 
 24.86         69 
 24.88         51 
 24.9          59 
 24.92         55 
 24.94         70 
 24.96         68 
 24.98         72 
 25            68 
 25.02         59 
 25.04         60 
 25.06         48 
 25.08         52 
 25.1          58 
 25.12         69 
 25.14         44 
 25.16         58 
 25.18         59 
 25.2          65 
 25.22         70 
 25.24         55 
 25.26         57 
 25.28         69 
 25.3          67 
 25.32         49 
 25.34         39 
 25.36         45 
 25.38         52 
 25.4          55 
 25.42         60 
 25.44         49 
 25.46         41 
 25.48         58 
 25.5          53 
 25.52         43 
 25.54         51 
 25.56         55 
 25.58         52 
 25.6          46 
 25.62         73 
 25.64         54 
 25.66         56 
 25.68         49 
 25.7          61 
 25.72         58 
 25.74         51 
 25.76         51 
 25.78         57 
 25.8          60 
 25.82         54 
 25.84         61 
 25.86         58 
 25.88         47 
 25.9          63 
 25.92         50 
 25.94         40 
 25.96         64 
 25.98         57 
 26            58 
 26.02         44 
 26.04         43 
 26.06         69 
 26.08         64 
 26.1          57 
 26.12         53 
 26.14         48 
 26.16         56 
 26.18         64 
 26.2          46 
 26.22         53 
 26.24         58 
 26.26         56 
 26.28         70 
 26.3          50 
 26.32         64 
 26.34         49 
 26.36         56 
 26.38         41 
 26.4          53 
 26.42         55 
 26.44         46 
 26.46         42 
 26.48         53 
 26.5          43 
 26.52         54 
 26.54         58 
 26.56         64 
 26.58         52 
 26.6          59 
 26.62         70 
 26.64         47 
 26.66         60 
 26.68         55 
 26.7          56 
 26.72         46 
 26.74         57 
 26.76         41 
 26.78         55 
 26.8          42 
 26.82         39 
 26.84         50 
 26.86         47 
 26.88         42 
 26.9          50 
 26.92         48 
 26.94         48 
 26.96         51 
 26.98         47 
 27            48 
 27.02         44 
 27.04         48 
 27.06         54 
 27.08         60 
 27.1          48 
 27.12         50 
 27.14         56 
 27.16         56 
 27.18         44 
 27.2          40 
 27.22         51 
 27.24         46 
 27.26         46 
 27.28         56 
 27.3          48 
 27.32         55 
 27.34         50 
 27.36         51 
 27.38         51 
 27.4          53 
 27.42         55 
 27.44         40 
 27.46         43 
 27.48         51 
 27.5          50 
 27.52         50 
 27.54         34 
 27.56         54 
 27.58         47 
 27.6          44 
 27.62         62 
 27.64         45 
 27.66         56 
 27.68         40 
 27.7          42 
 27.72         52 
 27.74         46 
 27.76         46 
 27.78         58 
 27.8          41 
 27.82         62 
 27.84         41 
 27.86         54 
 27.88         54 
 27.9          51 
 27.92         50 
 27.94         73 
 27.96         43 
 27.98         60 
 28            51 
 28.02         38 
 28.04         47 
 28.06         67 
 28.08         70 
 28.1          67 
 28.12         60 
 28.14         64 
 28.16         62 
 28.18         57 
 28.2          52 
 28.22         67 
 28.24         64 
 28.26         68 
 28.28         61 
 28.3          62 
 28.32         58 
 28.34         50 
 28.36         49 
 28.38         40 
 28.4          50 
 28.42         38 
 28.44         55 
 28.46         45 
 28.48         42 
 28.5          48 
 28.52         39 
 28.54         47 
 28.56         55 
 28.58         45 
 28.6          49 
 28.62         40 
 28.64         58 
 28.66         47 
 28.68         49 
 28.7          45 
 28.72         46 
 28.74         34 
 28.76         46 
 28.78         56 
 28.8          51 
 28.82         52 
 28.84         51 
 28.86         48 
 28.88         45 
 28.9          66 
 28.92         34 
 28.94         43 
 28.96         60 
 28.98         45 
 29            47 
 29.02         53 
 29.04         45 
 29.06         48 
 29.08         50 
 29.1          40 
 29.12         44 
 29.14         50 
 29.16         50 
 29.18         34 
 29.2          46 
 29.22         40 
 29.24         43 
 29.26         48 
 29.28         51 
 29.3          40 
 29.32         67 
 29.34         54 
 29.36         46 
 29.38         45 
 29.4          38 
 29.42         47 
 29.44         45 
 29.46         54 
 29.48         49 
 29.5          39 
 29.52         47 
 29.54         44 
 29.56         50 
 29.58         50 
 29.6          44 
 29.62         63 
 29.64         50 
 29.66         59 
 29.68         56 
 29.7          59 
 29.72         54 
 29.74         59 
 29.76         54 
 29.78         51 
 29.8          54 
 29.82         64 
 29.84         49 
 29.86         41 
 29.88         54 
 29.9          57 
 29.92         57 
 29.94         69 
 29.96         64 
 29.98         76 
 30            94 
 30.02         70 
 30.04         73 
 30.06         85 
 30.08         85 
 30.1          93 
 30.12         86 
 30.14         89 
 30.16         81 
 30.18         91 
 30.2          83 
 30.22         88 
 30.24         78 
 30.26         92 
 30.28         75 
 30.3          102 
 30.32         80 
 30.34         83 
 30.36         84 
 30.38         86 
 30.4          70 
 30.42         96 
 30.44         68 
 30.46         78 
 30.48         72 
 30.5          71 
 30.52         59 
 30.54         68 
 30.56         62 
 30.58         48 
 30.6          56 
 30.62         61 
 30.64         58 
 30.66         58 
 30.68         55 
 30.7          45 
 30.72         54 
 30.74         59 
 30.76         57 
 30.78         53 
 30.8          54 
 30.82         88 
 30.84         68 
 30.86         98 
 30.88         105 
 30.9          91 
 30.92         131 
 30.94         124 
 30.96         113 
 30.98         118 
 31            112 
 31.02         90 
 31.04         63 
 31.06         63 
 31.08         54 
 31.1          50 
 31.12         55 
 31.14         49 
 31.16         42 
 31.18         46 
 31.2          62 
 31.22         55 
 31.24         49 
 31.26         52 
 31.28         48 
 31.3          52 
 31.32         54 
 31.34         68 
 31.36         43 
 31.38         65 
 31.4          58 
 31.42         53 
 31.44         61 
 31.46         53 
 31.48         61 
 31.5          45 
 31.52         54 
 31.54         55 
 31.56         41 
 31.58         50 
 31.6          51 
 31.62         47 
 31.64         42 
 31.66         55 
 31.68         44 
 31.7          35 
 31.72         32 
 31.74         47 
 31.76         54 
 31.78         36 
 31.8          41 
 31.82         49 
 31.84         49 
 31.86         39 
 31.88         52 
 31.9          47 
 31.92         41 
 31.94         42 
 31.96         43 
 31.98         35 
 32            45 
 32.02         34 
 32.04         53 
 32.06         46 
 32.08         49 
 32.1          36 
 32.12         44 
 32.14         42 
 32.16         43 
 32.18         34 
 32.2          47 
 32.22         38 
 32.24         36 
 32.26         31 
 32.28         50 
 32.3          38 
 32.32         42 
 32.34         32 
 32.36         40 
 32.38         46 
 32.4          52 
 32.42         34 
 32.44         37 
 32.46         52 
 32.48         42 
 32.5          54 
 32.52         47 
 32.54         35 
 32.56         39 
 32.58         50 
 32.6          46 
 32.62         55 
 32.64         47 
 32.66         43 
 32.68         45 
 32.7          41 
 32.72         50 
 32.74         45 
 32.76         33 
 32.78         43 
 32.8          46 
 32.82         38 
 32.84         56 
 32.86         49 
 32.88         37 
 32.9          47 
 32.92         36 
 32.94         38 
 32.96         30 
 32.98         45 
 33            50 
 33.02         42 
 33.04         37 
 33.06         40 
 33.08         55 
 33.1          38 
 33.12         36 
 33.14         43 
 33.16         36 
 33.18         39 
 33.2          48 
 33.22         45 
 33.24         32 
 33.26         28 
 33.28         42 
 33.3          55 
 33.32         38 
 33.34         39 
 33.36         43 
 33.38         32 
 33.4          45 
 33.42         42 
 33.44         40 
 33.46         26 
 33.48         50 
 33.5          37 
 33.52         41 
 33.54         40 
 33.56         32 
 33.58         45 
 33.6          52 
 33.62         36 
 33.64         35 
 33.66         36 
 33.68         38 
 33.7          34 
 33.72         42 
 33.74         34 
 33.76         47 
 33.78         46 
 33.8          41 
 33.82         50 
 33.84         51 
 33.86         36 
 33.88         41 
 33.9          49 
 33.92         38 
 33.94         51 
 33.96         41 
 33.98         40 
 34            44 
 34.02         45 
 34.04         46 
 34.06         43 
 34.08         38 
 34.1          35 
 34.12         33 
 34.14         45 
 34.16         66 
 34.18         54 
 34.2          47 
 34.22         33 
 34.24         48 
 34.26         37 
 34.28         51 
 34.3          43 
 34.32         38 
 34.34         50 
 34.36         38 
 34.38         52 
 34.4          51 
 34.42         38 
 34.44         37 
 34.46         50 
 34.48         43 
 34.5          52 
 34.52         54 
 34.54         42 
 34.56         48 
 34.58         33 
 34.6          48 
 34.62         47 
 34.64         49 
 34.66         43 
 34.68         47 
 34.7          49 
 34.72         50 
 34.74         37 
 34.76         42 
 34.78         52 
 34.8          45 
 34.82         42 
 34.84         48 
 34.86         45 
 34.88         55 
 34.9          35 
 34.92         40 
 34.94         52 
 34.96         52 
 34.98         39 
 35            52 
 35.02         37 
 35.04         59 
 35.06         40 
 35.08         43 
 35.1          49 
 35.12         55 
 35.14         70 
 35.16         47 
 35.18         45 
 35.2          43 
 35.22         54 
 35.24         56 
 35.26         47 
 35.28         53 
 35.3          55 
 35.32         53 
 35.34         62 
 35.36         55 
 35.38         70 
 35.4          38 
 35.42         48 
 35.44         68 
 35.46         59 
 35.48         50 
 35.5          61 
 35.52         59 
 35.54         69 
 35.56         53 
 35.58         57 
 35.6          54 
 35.62         54 
 35.64         54 
 35.66         58 
 35.68         62 
 35.7          67 
 35.72         60 
 35.74         72 
 35.76         78 
 35.78         69 
 35.8          88 
 35.82         105 
 35.84         89 
 35.86         103 
 35.88         94 
 35.9          128 
 35.92         106 
 35.94         129 
 35.96         137 
 35.98         124 
 36            157 
 36.02         165 
 36.04         192 
 36.06         239 
 36.08         234 
 36.1          272 
 36.12         295 
 36.14         320 
 36.16         384 
 36.18         455 
 36.2          522 
 36.22         643 
 36.24         760 
 36.26         983 
 36.28         1155 
 36.3          1449 
 36.32         1931 
 36.34         2383 
 36.36         3025 
 36.38         3884 
 36.4          4564 
 36.42         5244 
 36.44         5900 
 36.46         5753 
 36.48         5611 
 36.5          5071 
 36.52         4437 
 36.54         3708 
 36.56         3062 
 36.58         2440 
 36.6          1873 
 36.62         1328 
 36.64         981 
 36.66         742 
 36.68         548 
 36.7          446 
 36.72         373 
 36.74         338 
 36.76         275 
 36.78         219 
 36.8          220 
 36.82         184 
 36.84         163 
 36.86         139 
 36.88         127 
 36.9          133 
 36.92         119 
 36.94         103 
 36.96         123 
 36.98         99 
 37            103 
 37.02         92 
 37.04         110 
 37.06         92 
 37.08         99 
 37.1          77 
 37.12         84 
 37.14         64 
 37.16         71 
 37.18         89 
 37.2          73 
 37.22         80 
 37.24         70 
 37.26         65 
 37.28         88 
 37.3          88 
 37.32         92 
 37.34         103 
 37.36         117 
 37.38         98 
 37.4          123 
 37.42         113 
 37.44         124 
 37.46         110 
 37.48         120 
 37.5          110 
 37.52         115 
 37.54         123 
 37.56         94 
 37.58         106 
 37.6          99 
 37.62         97 
 37.64         94 
 37.66         96 
 37.68         89 
 37.7          87 
 37.72         75 
 37.74         77 
 37.76         91 
 37.78         78 
 37.8          82 
 37.82         102 
 37.84         108 
 37.86         130 
 37.88         135 
 37.9          134 
 37.92         193 
 37.94         199 
 37.96         278 
 37.98         316 
 38            396 
 38.02         494 
 38.04         577 
 38.06         763 
 38.08         942 
 38.1          1059 
 38.12         1169 
 38.14         1216 
 38.16         1197 
 38.18         1059 
 38.2          952 
 38.22         814 
 38.24         651 
 38.26         575 
 38.28         450 
 38.3          328 
 38.32         256 
 38.34         189 
 38.36         120 
 38.38         129 
 38.4          109 
 38.42         91 
 38.44         74 
 38.46         78 
 38.48         72 
 38.5          65 
 38.52         55 
 38.54         62 
 38.56         56 
 38.58         52 
 38.6          57 
 38.62         42 
 38.64         42 
 38.66         50 
 38.68         52 
 38.7          46 
 38.72         37 
 38.74         46 
 38.76         36 
 38.78         44 
 38.8          41 
 38.82         61 
 38.84         34 
 38.86         51 
 38.88         49 
 38.9          28 
 38.92         41 
 38.94         32 
 38.96         38 
 38.98         33 
 39            35 
 39.02         41 
 39.04         45 
 39.06         38 
 39.08         48 
 39.1          33 
 39.12         33 
 39.14         41 
 39.16         33 
 39.18         34 
 39.2          46 
 39.22         48 
 39.24         29 
 39.26         41 
 39.28         49 
 39.3          45 
 39.32         30 
 39.34         45 
 39.36         34 
 39.38         48 
 39.4          31 
 39.42         36 
 39.44         43 
 39.46         36 
 39.48         33 
 39.5          33 
 39.52         40 
 39.54         33 
 39.56         42 
 39.58         38 
 39.6          29 
 39.62         35 
 39.64         39 
 39.66         45 
 39.68         42 
 39.7          28 
 39.72         40 
 39.74         42 
 39.76         41 
 39.78         45 
 39.8          45 
 39.82         23 
 39.84         35 
 39.86         29 
 39.88         39 
 39.9          42 
 39.92         25 
 39.94         51 
 39.96         42 
 39.98         40 
 40            34 
 40.02         28 
 40.04         27 
 40.06         31 
 40.08         43 
 40.1          37 
 40.12         29 
 40.14         43 
 40.16         31 
 40.18         39 
 40.2          56 
 40.22         40 
 40.24         30 
 40.26         33 
 40.28         32 
 40.3          29 
 40.32         37 
 40.34         30 
 40.36         32 
 40.38         39 
 40.4          35 
 40.42         33 
 40.44         31 
 40.46         36 
 40.48         33 
 40.5          42 
 40.52         25 
 40.54         41 
 40.56         41 
 40.58         44 
 40.6          32 
 40.62         24 
 40.64         46 
 40.66         44 
 40.68         32 
 40.7          38 
 40.72         31 
 40.74         35 
 40.76         32 
 40.78         40 
 40.8          45 
 40.82         41 
 40.84         49 
 40.86         50 
 40.88         29 
 40.9          37 
 40.92         40 
 40.94         24 
 40.96         47 
 40.98         30 
 41            40 
 41.02         41 
 41.04         40 
 41.06         34 
 41.08         32 
 41.1          28 
 41.12         38 
 41.14         41 
 41.16         26 
 41.18         27 
 41.2          38 
 41.22         37 
 41.24         32 
 41.26         37 
 41.28         40 
 41.3          37 
 41.32         37 
 41.34         39 
 41.36         32 
 41.38         49 
 41.4          32 
 41.42         28 
 41.44         20 
 41.46         32 
 41.48         38 
 41.5          29 
 41.52         39 
 41.54         28 
 41.56         30 
 41.58         36 
 41.6          28 
 41.62         27 
 41.64         36 
 41.66         44 
 41.68         37 
 41.7          29 
 41.72         19 
 41.74         35 
 41.76         37 
 41.78         39 
 41.8          27 
 41.82         40 
 41.84         38 
 41.86         39 
 41.88         29 
 41.9          28 
 41.92         31 
 41.94         27 
 41.96         22 
 41.98         45 
 42            40 
 42.02         46 
 42.04         29 
 42.06         33 
 42.08         43 
 42.1          43 
 42.12         55 
 42.14         30 
 42.16         36 
 42.18         32 
 42.2          41 
 42.22         41 
 42.24         37 
 42.26         32 
 42.28         31 
 42.3          47 
 42.32         35 
 42.34         28 
 42.36         29 
 42.38         43 
 42.4          36 
 42.42         46 
 42.44         33 
 42.46         45 
 42.48         45 
 42.5          54 
 42.52         37 
 42.54         40 
 42.56         37 
 42.58         35 
 42.6          37 
 42.62         47 
 42.64         32 
 42.66         38 
 42.68         30 
 42.7          35 
 42.72         40 
 42.74         45 
 42.76         38 
 42.78         48 
 42.8          47 
 42.82         48 
 42.84         42 
 42.86         26 
 42.88         47 
 42.9          55 
 42.92         41 
 42.94         51 
 42.96         40 
 42.98         46 
 43            40 
 43.02         42 
 43.04         52 
 43.06         44 
 43.08         48 
 43.1          57 
 43.12         56 
 43.14         44 
 43.16         50 
 43.18         53 
 43.2          63 
 43.22         59 
 43.24         68 
 43.26         68 
 43.28         84 
 43.3          73 
 43.32         83 
 43.34         86 
 43.36         98 
 43.38         101 
 43.4          126 
 43.42         145 
 43.44         143 
 43.46         168 
 43.48         161 
 43.5          192 
 43.52         174 
 43.54         188 
 43.56         186 
 43.58         199 
 43.6          184 
 43.62         194 
 43.64         188 
 43.66         145 
 43.68         145 
 43.7          160 
 43.72         158 
 43.74         163 
 43.76         147 
 43.78         155 
 43.8          143 
 43.82         128 
 43.84         180 
 43.86         174 
 43.88         193 
 43.9          228 
 43.92         249 
 43.94         276 
 43.96         299 
 43.98         317 
 44            362 
 44.02         455 
 44.04         493 
 44.06         582 
 44.08         654 
 44.1          782 
 44.12         925 
 44.14         1146 
 44.16         1408 
 44.18         1842 
 44.2          2317 
 44.22         3057 
 44.24         3811 
 44.26         4696 
 44.28         5340 
 44.3          6091 
 44.32         6385 
 44.34         6290 
 44.36         5973 
 44.38         5361 
 44.4          4906 
 44.42         4344 
 44.44         3671 
 44.46         3085 
 44.48         2510 
 44.5          1870 
 44.52         1407 
 44.54         1080 
 44.56         844 
 44.58         682 
 44.6          510 
 44.62         451 
 44.64         374 
 44.66         327 
 44.68         333 
 44.7          271 
 44.72         231 
 44.74         213 
 44.76         196 
 44.78         185 
 44.8          149 
 44.82         152 
 44.84         141 
 44.86         131 
 44.88         129 
 44.9          120 
 44.92         116 
 44.94         104 
 44.96         74 
 44.98         97 
 45            98 
 45.02         90 
 45.04         80 
 45.06         78 
 45.08         80 
 45.1          83 
 45.12         72 
 45.14         69 
 45.16         60 
 45.18         79 
 45.2          68 
 45.22         70 
 45.24         71 
 45.26         50 
 45.28         65 
 45.3          66 
 45.32         53 
 45.34         57 
 45.36         54 
 45.38         53 
 45.4          47 
 45.42         59 
 45.44         58 
 45.46         46 
 45.48         62 
 45.5          51 
 45.52         48 
 45.54         44 
 45.56         46 
 45.58         47 
 45.6          39 
 45.62         45 
 45.64         49 
 45.66         54 
 45.68         44 
 45.7          44 
 45.72         33 
 45.74         36 
 45.76         34 
 45.78         36 
 45.8          38 
 45.82         43 
 45.84         47 
 45.86         51 
 45.88         32 
 45.9          39 
 45.92         35 
 45.94         33 
 45.96         45 
 45.98         38 
 46            38 
 46.02         35 
 46.04         34 
 46.06         36 
 46.08         35 
 46.1          40 
 46.12         41 
 46.14         42 
 46.16         32 
 46.18         34 
 46.2          44 
 46.22         33 
 46.24         47 
 46.26         31 
 46.28         43 
 46.3          36 
 46.32         40 
 46.34         29 
 46.36         33 
 46.38         40 
 46.4          39 
 46.42         41 
 46.44         33 
 46.46         40 
 46.48         27 
 46.5          28 
 46.52         31 
 46.54         32 
 46.56         27 
 46.58         37 
 46.6          33 
 46.62         31 
 46.64         28 
 46.66         37 
 46.68         42 
 46.7          22 
 46.72         24 
 46.74         32 
 46.76         25 
 46.78         26 
 46.8          28 
 46.82         41 
 46.84         41 
 46.86         20 
 46.88         39 
 46.9          33 
 46.92         27 
 46.94         28 
 46.96         28 
 46.98         32 
 47            27 
 47.02         31 
 47.04         31 
 47.06         40 
 47.08         26 
 47.1          31 
 47.12         30 
 47.14         33 
 47.16         25 
 47.18         37 
 47.2          37 
 47.22         29 
 47.24         34 
 47.26         31 
 47.28         33 
 47.3          33 
 47.32         28 
 47.34         30 
 47.36         35 
 47.38         38 
 47.4          26 
 47.42         27 
 47.44         40 
 47.46         33 
 47.48         40 
 47.5          43 
 47.52         30 
 47.54         32 
 47.56         35 
 47.58         34 
 47.6          40 
 47.62         31 
 47.64         43 
 47.66         44 
 47.68         34 
 47.7          35 
 47.72         38 
 47.74         33 
 47.76         37 
 47.78         35 
 47.8          40 
 47.82         44 
 47.84         36 
 47.86         35 
 47.88         43 
 47.9          37 
 47.92         43 
 47.94         38 
 47.96         50 
 47.98         39 
 48            40 
 48.02         38 
 48.04         40 
 48.06         50 
 48.08         45 
 48.1          46 
 48.12         62 
 48.14         78 
 48.16         67 
 48.18         62 
 48.2          85 
 48.22         83 
 48.24         76 
 48.26         84 
 48.28         129 
 48.3          108 
 48.32         167 
 48.34         146 
 48.36         201 
 48.38         255 
 48.4          301 
 48.42         399 
 48.44         463 
 48.46         674 
 48.48         814 
 48.5          915 
 48.52         1078 
 48.54         1063 
 48.56         1095 
 48.58         1053 
 48.6          899 
 48.62         827 
 48.64         719 
 48.66         687 
 48.68         577 
 48.7          492 
 48.72         386 
 48.74         313 
 48.76         215 
 48.78         182 
 48.8          160 
 48.82         138 
 48.84         115 
 48.86         99 
 48.88         69 
 48.9          91 
 48.92         77 
 48.94         61 
 48.96         65 
 48.98         56 
 49            60 
 49.02         58 
 49.04         46 
 49.06         58 
 49.08         49 
 49.1          50 
 49.12         52 
 49.14         52 
 49.16         62 
 49.18         43 
 49.2          41 
 49.22         48 
 49.24         44 
 49.26         31 
 49.28         43 
 49.3          37 
 49.32         49 
 49.34         43 
 49.36         35 
 49.38         36 
 49.4          25 
 49.42         48 
 49.44         36 
 49.46         39 
 49.48         36 
 49.5          47 
 49.52         40 
 49.54         30 
 49.56         41 
 49.58         25 
 49.6          31 
 49.62         38 
 49.64         28 
 49.66         33 
 49.68         37 
 49.7          22 
 49.72         38 
 49.74         27 
 49.76         38 
 49.78         29 
 49.8          43 
 49.82         41 
 49.84         31 
 49.86         38 
 49.88         32 
 49.9          31 
 49.92         32 
 49.94         38 
 49.96         29 
 49.98         44 
 50            46 
 50.02         46 
 50.04         42 
 50.06         34 
 50.08         40 
 50.1          49 
 50.12         48 
 50.14         53 
 50.16         38 
 50.18         48 
 50.2          37 
 50.22         55 
 50.24         57 
 50.26         35 
 50.28         51 
 50.3          53 
 50.32         52 
 50.34         48 
 50.36         45 
 50.38         46 
 50.4          37 
 50.42         40 
 50.44         44 
 50.46         39 
 50.48         49 
 50.5          44 
 50.52         43 
 50.54         46 
 50.56         46 
 50.58         40 
 50.6          43 
 50.62         33 
 50.64         27 
 50.66         34 
 50.68         46 
 50.7          44 
 50.72         33 
 50.74         44 
 50.76         41 
 50.78         31 
 50.8          32 
 50.82         39 
 50.84         32 
 50.86         50 
 50.88         33 
 50.9          35 
 50.92         36 
 50.94         27 
 50.96         32 
 50.98         25 
 51            38 
 51.02         33 
 51.04         28 
 51.06         30 
 51.08         32 
 51.1          35 
 51.12         33 
 51.14         37 
 51.16         32 
 51.18         26 
 51.2          24 
 51.22         30 
 51.24         36 
 51.26         28 
 51.28         35 
 51.3          30 
 51.32         26 
 51.34         22 
 51.36         18 
 51.38         35 
 51.4          31 
 51.42         25 
 51.44         32 
 51.46         18 
 51.48         29 
 51.5          38 
 51.52         31 
 51.54         30 
 51.56         33 
 51.58         23 
 51.6          14 
 51.62         24 
 51.64         34 
 51.66         29 
 51.68         29 
 51.7          22 
 51.72         27 
 51.74         27 
 51.76         34 
 51.78         31 
 51.8          15 
 51.82         26 
 51.84         31 
 51.86         24 
 51.88         28 
 51.9          18 
 51.92         25 
 51.94         32 
 51.96         27 
 51.98         16 
 52            24 
 52.02         34 
 52.04         28 
 52.06         27 
 52.08         34 
 52.1          21 
 52.12         22 
 52.14         28 
 52.16         25 
 52.18         15 
 52.2          15 
 52.22         36 
 52.24         26 
 52.26         29 
 52.28         28 
 52.3          30 
 52.32         23 
 52.34         28 
 52.36         21 
 52.38         28 
 52.4          29 
 52.42         34 
 52.44         21 
 52.46         29 
 52.48         29 
 52.5          21 
 52.52         25 
 52.54         25 
 52.56         32 
 52.58         20 
 52.6          28 
 52.62         30 
 52.64         31 
 52.66         29 
 52.68         27 
 52.7          32 
 52.72         26 
 52.74         30 
 52.76         31 
 52.78         23 
 52.8          34 
 52.82         24 
 52.84         32 
 52.86         25 
 52.88         23 
 52.9          19 
 52.92         30 
 52.94         25 
 52.96         19 
 52.98         27 
 53            20 
 53.02         32 
 53.04         27 
 53.06         22 
 53.08         29 
 53.1          26 
 53.12         28 
 53.14         27 
 53.16         24 
 53.18         27 
 53.2          27 
 53.22         22 
 53.24         27 
 53.26         23 
 53.28         25 
 53.3          28 
 53.32         23 
 53.34         25 
 53.36         24 
 53.38         28 
 53.4          34 
 53.42         24 
 53.44         26 
 53.46         27 
 53.48         17 
 53.5          32 
 53.52         23 
 53.54         26 
 53.56         34 
 53.58         24 
 53.6          26 
 53.62         31 
 53.64         26 
 53.66         21 
 53.68         29 
 53.7          29 
 53.72         29 
 53.74         24 
 53.76         23 
 53.78         35 
 53.8          21 
 53.82         37 
 53.84         29 
 53.86         29 
 53.88         33 
 53.9          35 
 53.92         31 
 53.94         25 
 53.96         30 
 53.98         23 
 54            24 
 54.02         34 
 54.04         35 
 54.06         36 
 54.08         21 
 54.1          28 
 54.12         29 
 54.14         28 
 54.16         28 
 54.18         36 
 54.2          30 
 54.22         32 
 54.24         33 
 54.26         33 
 54.28         31 
 54.3          23 
 54.32         21 
 54.34         26 
 54.36         22 
 54.38         27 
 54.4          20 
 54.42         27 
 54.44         30 
 54.46         31 
 54.48         25 
 54.5          34 
 54.52         24 
 54.54         31 
 54.56         26 
 54.58         28 
 54.6          24 
 54.62         32 
 54.64         41 
 54.66         15 
 54.68         33 
 54.7          30 
 54.72         32 
 54.74         31 
 54.76         18 
 54.78         36 
 54.8          29 
 54.82         20 
 54.84         26 
 54.86         26 
 54.88         38 
 54.9          27 
 54.92         30 
 54.94         25 
 54.96         35 
 54.98         37 
 55            34 
 55.02         31 
 55.04         46 
 55.06         35 
 55.08         41 
 55.1          30 
 55.12         24 
 55.14         29 
 55.16         36 
 55.18         31 
 55.2          27 
 55.22         35 
 55.24         26 
 55.26         24 
 55.28         33 
 55.3          23 
 55.32         22 
 55.34         26 
 55.36         26 
 55.38         30 
 55.4          38 
 55.42         35 
 55.44         34 
 55.46         29 
 55.48         38 
 55.5          34 
 55.52         43 
 55.54         24 
 55.56         27 
 55.58         29 
 55.6          21 
 55.62         23 
 55.64         28 
 55.66         33 
 55.68         28 
 55.7          38 
 55.72         31 
 55.74         28 
 55.76         28 
 55.78         21 
 55.8          21 
 55.82         23 
 55.84         36 
 55.86         28 
 55.88         29 
 55.9          39 
 55.92         25 
 55.94         41 
 55.96         28 
 55.98         31 
 56            28 
 56.02         36 
 56.04         30 
 56.06         27 
 56.08         39 
 56.1          35 
 56.12         30 
 56.14         24 
 56.16         28 
 56.18         22 
 56.2          23 
 56.22         27 
 56.24         26 
 56.26         35 
 56.28         23 
 56.3          32 
 56.32         23 
 56.34         32 
 56.36         30 
 56.38         31 
 56.4          27 
 56.42         23 
 56.44         27 
 56.46         31 
 56.48         26 
 56.5          35 
 56.52         30 
 56.54         29 
 56.56         30 
 56.58         27 
 56.6          25 
 56.62         23 
 56.64         37 
 56.66         35 
 56.68         26 
 56.7          29 
 56.72         43 
 56.74         19 
 56.76         33 
 56.78         19 
 56.8          30 
 56.82         28 
 56.84         27 
 56.86         30 
 56.88         36 
 56.9          42 
 56.92         32 
 56.94         28 
 56.96         32 
 56.98         32 
 57            25 
 57.02         20 
 57.04         27 
 57.06         26 
 57.08         35 
 57.1          36 
 57.12         30 
 57.14         34 
 57.16         35 
 57.18         29 
 57.2          35 
 57.22         25 
 57.24         24 
 57.26         37 
 57.28         42 
 57.3          40 
 57.32         38 
 57.34         41 
 57.36         38 
 57.38         27 
 57.4          34 
 57.42         33 
 57.44         43 
 57.46         39 
 57.48         37 
 57.5          31 
 57.52         27 
 57.54         38 
 57.56         41 
 57.58         38 
 57.6          52 
 57.62         46 
 57.64         36 
 57.66         51 
 57.68         37 
 57.7          43 
 57.72         36 
 57.74         36 
 57.76         32 
 57.78         43 
 57.8          48 
 57.82         42 
 57.84         46 
 57.86         42 
 57.88         48 
 57.9          51 
 57.92         52 
 57.94         54 
 57.96         55 
 57.98         39 
 58            65 
 58.02         42 
 58.04         63 
 58.06         54 
 58.08         57 
 58.1          62 
 58.12         61 
 58.14         61 
 58.16         56 
 58.18         72 
 58.2          64 
 58.22         69 
 58.24         99 
 58.26         86 
 58.28         97 
 58.3          122 
 58.32         134 
 58.34         130 
 58.36         157 
 58.38         150 
 58.4          181 
 58.42         229 
 58.44         234 
 58.46         257 
 58.48         309 
 58.5          362 
 58.52         467 
 58.54         569 
 58.56         761 
 58.58         914 
 58.6          1185 
 58.62         1441 
 58.64         1674 
 58.66         1822 
 58.68         1867 
 58.7          1842 
 58.72         1742 
 58.74         1573 
 58.76         1455 
 58.78         1265 
 58.8          1276 
 58.82         1194 
 58.84         1204 
 58.86         970 
 58.88         860 
 58.9          686 
 58.92         519 
 58.94         389 
 58.96         347 
 58.98         273 
 59            207 
 59.02         193 
 59.04         163 
 59.06         129 
 59.08         135 
 59.1          110 
 59.12         118 
 59.14         95 
 59.16         94 
 59.18         71 
 59.2          84 
 59.22         73 
 59.24         70 
 59.26         69 
 59.28         53 
 59.3          58 
 59.32         61 
 59.34         61 
 59.36         44 
 59.38         42 
 59.4          70 
 59.42         56 
 59.44         61 
 59.46         53 
 59.48         53 
 59.5          52 
 59.52         41 
 59.54         45 
 59.56         49 
 59.58         56 
 59.6          44 
 59.62         56 
 59.64         50 
 59.66         44 
 59.68         29 
 59.7          50 
 59.72         51 
 59.74         40 
 59.76         48 
 59.78         56 
 59.8          47 
 59.82         50 
 59.84         45 
 59.86         37 
 59.88         47 
 59.9          36 
 59.92         38 
 59.94         51 
 59.96         36 
 59.98         45 
 60            45 
 60.02         40 
 60.04         46 
 60.06         46 
 60.08         47 
 60.1          45 
 60.12         28 
 60.14         31 
 60.16         39 
 60.18         29 
 60.2          45 
 60.22         51 
 60.24         27 
 60.26         51 
 60.28         29 
 60.3          46 
 60.32         46 
 60.34         45 
 60.36         35 
 60.38         48 
 60.4          38 
 60.42         35 
 60.44         33 
 60.46         38 
 60.48         38 
 60.5          37 
 60.52         31 
 60.54         26 
 60.56         33 
 60.58         30 
 60.6          28 
 60.62         37 
 60.64         40 
 60.66         37 
 60.68         28 
 60.7          28 
 60.72         47 
 60.74         35 
 60.76         34 
 60.78         34 
 60.8          22 
 60.82         36 
 60.84         38 
 60.86         35 
 60.88         22 
 60.9          31 
 60.92         34 
 60.94         29 
 60.96         28 
 60.98         27 
 61            20 
 61.02         26 
 61.04         31 
 61.06         27 
 61.08         22 
 61.1          34 
 61.12         34 
 61.14         32 
 61.16         29 
 61.18         25 
 61.2          22 
 61.22         28 
 61.24         24 
 61.26         15 
 61.28         22 
 61.3          32 
 61.32         31 
 61.34         29 
 61.36         24 
 61.38         21 
 61.4          28 
 61.42         22 
 61.44         33 
 61.46         26 
 61.48         40 
 61.5          22 
 61.52         29 
 61.54         23 
 61.56         25 
 61.58         23 
 61.6          34 
 61.62         39 
 61.64         35 
 61.66         31 
 61.68         27 
 61.7          30 
 61.72         36 
 61.74         23 
 61.76         29 
 61.78         39 
 61.8          24 
 61.82         29 
 61.84         37 
 61.86         27 
 61.88         18 
 61.9          42 
 61.92         28 
 61.94         29 
 61.96         30 
 61.98         26 
 62            38 
 62.02         33 
 62.04         27 
 62.06         26 
 62.08         25 
 62.1          32 
 62.12         36 
 62.14         23 
 62.16         36 
 62.18         35 
 62.2          29 
 62.22         33 
 62.24         32 
 62.26         36 
 62.28         27 
 62.3          34 
 62.32         32 
 62.34         38 
 62.36         30 
 62.38         30 
 62.4          32 
 62.42         26 
 62.44         28 
 62.46         43 
 62.48         34 
 62.5          45 
 62.52         31 
 62.54         43 
 62.56         30 
 62.58         35 
 62.6          29 
 62.62         25 
 62.64         34 
 62.66         30 
 62.68         34 
 62.7          33 
 62.72         45 
 62.74         33 
 62.76         42 
 62.78         39 
 62.8          31 
 62.82         37 
 62.84         33 
 62.86         38 
 62.88         45 
 62.9          42 
 62.92         51 
 62.94         43 
 62.96         48 
 62.98         43 
 63            43 
 63.02         50 
 63.04         55 
 63.06         54 
 63.08         58 
 63.1          71 
 63.12         58 
 63.14         75 
 63.16         65 
 63.18         55 
 63.2          86 
 63.22         92 
 63.24         86 
 63.26         83 
 63.28         77 
 63.3          106 
 63.32         103 
 63.34         87 
 63.36         77 
 63.38         70 
 63.4          71 
 63.42         94 
 63.44         82 
 63.46         78 
 63.48         77 
 63.5          82 
 63.52         57 
 63.54         65 
 63.56         56 
 63.58         54 
 63.6          55 
 63.62         56 
 63.64         61 
 63.66         55 
 63.68         71 
 63.7          66 
 63.72         66 
 63.74         59 
 63.76         78 
 63.78         59 
 63.8          62 
 63.82         68 
 63.84         73 
 63.86         71 
 63.88         71 
 63.9          99 
 63.92         90 
 63.94         86 
 63.96         105 
 63.98         112 
 64            105 
 64.02         111 
 64.04         122 
 64.06         147 
 64.08         145 
 64.1          163 
 64.12         175 
 64.14         224 
 64.16         222 
 64.18         243 
 64.2          245 
 64.22         300 
 64.24         359 
 64.26         411 
 64.28         455 
 64.3          613 
 64.32         729 
 64.34         908 
 64.36         1190 
 64.38         1588 
 64.4          1912 
 64.42         2340 
 64.44         2819 
 64.46         3052 
 64.48         3053 
 64.5          2897 
 64.52         2726 
 64.54         2358 
 64.56         2085 
 64.58         1943 
 64.6          1885 
 64.62         1938 
 64.64         1851 
 64.66         1690 
 64.68         1542 
 64.7          1262 
 64.72         1069 
 64.74         776 
 64.76         633 
 64.78         476 
 64.8          405 
 64.82         314 
 64.84         265 
 64.86         228 
 64.88         197 
 64.9          169 
 64.92         156 
 64.94         157 
 64.96         123 
 64.98         137 
 65            111 
 65.02         108 
 65.04         98 
 65.06         94 
 65.08         75 
 65.1          86 
 65.12         55 
 65.14         90 
 65.16         77 
 65.18         56 
 65.2          68 
 65.22         50 
 65.24         66 
 65.26         60 
 65.28         55 
 65.3          75 
 65.32         65 
 65.34         51 
 65.36         57 
 65.38         54 
 65.4          56 
 65.42         51 
 65.44         51 
 65.46         39 
 65.48         46 
 65.5          47 
 65.52         45 
 65.54         40 
 65.56         45 
 65.58         47 
 65.6          47 
 65.62         36 
 65.64         57 
 65.66         56 
 65.68         36 
 65.7          48 
 65.72         45 
 65.74         45 
 65.76         47 
 65.78         35 
 65.8          40 
 65.82         44 
 65.84         35 
 65.86         36 
 65.88         28 
 65.9          32 
 65.92         37 
 65.94         36 
 65.96         28 
 65.98         36 
 66            28 
 66.02         32 
 66.04         38 
 66.06         28 
 66.08         31 
 66.1          41 
 66.12         31 
 66.14         38 
 66.16         42 
 66.18         39 
 66.2          28 
 66.22         32 
 66.24         36 
 66.26         38 
 66.28         52 
 66.3          27 
 66.32         38 
 66.34         47 
 66.36         41 
 66.38         32 
 66.4          27 
 66.42         47 
 66.44         40 
 66.46         38 
 66.48         33 
 66.5          34 
 66.52         39 
 66.54         42 
 66.56         43 
 66.58         41 
 66.6          41 
 66.62         40 
 66.64         42 
 66.66         34 
 66.68         46 
 66.7          31 
 66.72         38 
 66.74         31 
 66.76         39 
 66.78         51 
 66.8          29 
 66.82         26 
 66.84         44 
 66.86         28 
 66.88         42 
 66.9          43 
 66.92         27 
 66.94         44 
 66.96         34 
 66.98         38 
 67            44 
 67.02         42 
 67.04         38 
 67.06         48 
 67.08         36 
 67.1          43 
 67.12         36 
 67.14         46 
 67.16         41 
 67.18         45 
 67.2          45 
 67.22         42 
 67.24         46 
 67.26         50 
 67.28         52 
 67.3          64 
 67.32         63 
 67.34         75 
 67.36         77 
 67.38         79 
 67.4          71 
 67.42         86 
 67.44         76 
 67.46         96 
 67.48         88 
 67.5          126 
 67.52         107 
 67.54         128 
 67.56         143 
 67.58         177 
 67.6          209 
 67.62         216 
 67.64         248 
 67.66         340 
 67.68         423 
 67.7          505 
 67.72         690 
 67.74         806 
 67.76         949 
 67.78         1135 
 67.8          1171 
 67.82         1203 
 67.84         1169 
 67.86         1112 
 67.88         913 
 67.9          864 
 67.92         812 
 67.94         786 
 67.96         789 
 67.98         726 
 68            735 
 68.02         665 
 68.04         604 
 68.06         481 
 68.08         435 
 68.1          299 
 68.12         253 
 68.14         167 
 68.16         173 
 68.18         135 
 68.2          124 
 68.22         92 
 68.24         96 
 68.26         89 
 68.28         89 
 68.3          83 
 68.32         72 
 68.34         59 
 68.36         70 
 68.38         62 
 68.4          59 
 68.42         36 
 68.44         51 
 68.46         43 
 68.48         45 
 68.5          44 
 68.52         38 
 68.54         44 
 68.56         35 
 68.58         45 
 68.6          40 
 68.62         47 
 68.64         35 
 68.66         40 
 68.68         37 
 68.7          43 
 68.72         24 
 68.74         36 
 68.76         34 
 68.78         35 
 68.8          34 
 68.82         30 
 68.84         31 
 68.86         36 
 68.88         34 
 68.9          35 
 68.92         33 
 68.94         30 
 68.96         39 
 68.98         46 
 69            41 
 69.02         39 
 69.04         32 
 69.06         32 
 69.08         37 
 69.1          39 
 69.12         31 
 69.14         28 
 69.16         25 
 69.18         21 
 69.2          19 
 69.22         39 
 69.24         25 
 69.26         27 
 69.28         29 
 69.3          28 
 69.32         32 
 69.34         34 
 69.36         23 
 69.38         24 
 69.4          24 
 69.42         28 
 69.44         22 
 69.46         28 
 69.48         27 
 69.5          30 
 69.52         28 
 69.54         22 
 69.56         26 
 69.58         26 
 69.6          26 
 69.62         24 
 69.64         34 
 69.66         26 
 69.68         19 
 69.7          36 
 69.72         36 
 69.74         23 
 69.76         31 
 69.78         27 
 69.8          19 
 69.82         22 
 69.84         25 
 69.86         29 
 69.88         22 
 69.9          27 
 69.92         19 
 69.94         32 
 69.96         32 
 69.98         25 
 70            26 
 70.02         30 
 70.04         17 
 70.06         28 
 70.08         17 
 70.1          31 
 70.12         19 
 70.14         20 
 70.16         34 
 70.18         25 
 70.2          25 
 70.22         23 
 70.24         29 
 70.26         19 
 70.28         14 
 70.3          26 
 70.32         22 
 70.34         19 
 70.36         20 
 70.38         24 
 70.4          25 
 70.42         23 
 70.44         26 
 70.46         22 
 70.48         21 
 70.5          25 
 70.52         25 
 70.54         15 
 70.56         37 
 70.58         24 
 70.6          31 
 70.62         19 
 70.64         20 
 70.66         18 
 70.68         22 
 70.7          21 
 70.72         27 
 70.74         22 
 70.76         32 
 70.78         19 
 70.8          29 
 70.82         18 
 70.84         23 
 70.86         19 
 70.88         24 
 70.9          24 
 70.92         18 
 70.94         26 
 70.96         26 
 70.98         32 
 71            25 
 71.02         22 
 71.04         20 
 71.06         22 
 71.08         19 
 71.1          19 
 71.12         23 
 71.14         19 
 71.16         27 
 71.18         33 
 71.2          31 
 71.22         13 
 71.24         27 
 71.26         18 
 71.28         21 
 71.3          29 
 71.32         25 
 71.34         24 
 71.36         15 
 71.38         26 
 71.4          27 
 71.42         29 
 71.44         24 
 71.46         19 
 71.48         18 
 71.5          22 
 71.52         21 
 71.54         27 
 71.56         21 
 71.58         25 
 71.6          25 
 71.62         21 
 71.64         18 
 71.66         22 
 71.68         23 
 71.7          23 
 71.72         21 
 71.74         18 
 71.76         25 
 71.78         24 
 71.8          22 
 71.82         26 
 71.84         22 
 71.86         23 
 71.88         26 
 71.9          23 
 71.92         20 
 71.94         25 
 71.96         25 
 71.98         25 
 72            20 
 72.02         17 
 72.04         19 
 72.06         27 
 72.08         19 
 72.1          15 
 72.12         19 
 72.14         22 
 72.16         21 
 72.18         15 
 72.2          18 
 72.22         35 
 72.24         26 
 72.26         21 
 72.28         19 
 72.3          27 
 72.32         20 
 72.34         16 
 72.36         28 
 72.38         26 
 72.4          20 
 72.42         29 
 72.44         24 
 72.46         23 
 72.48         23 
 72.5          21 
 72.52         24 
 72.54         29 
 72.56         28 
 72.58         25 
 72.6          26 
 72.62         25 
 72.64         21 
 72.66         23 
 72.68         21 
 72.7          26 
 72.72         24 
 72.74         20 
 72.76         25 
 72.78         21 
 72.8          17 
 72.82         20 
 72.84         19 
 72.86         21 
 72.88         22 
 72.9          20 
 72.92         28 
 72.94         23 
 72.96         22 
 72.98         40 
 73            18 
 73.02         17 
 73.04         27 
 73.06         18 
 73.08         21 
 73.1          24 
 73.12         26 
 73.14         27 
 73.16         34 
 73.18         31 
 73.2          28 
 73.22         18 
 73.24         25 
 73.26         30 
 73.28         33 
 73.3          22 
 73.32         28 
 73.34         20 
 73.36         25 
 73.38         41 
 73.4          19 
 73.42         23 
 73.44         27 
 73.46         29 
 73.48         18 
 73.5          17 
 73.52         24 
 73.54         26 
 73.56         16 
 73.58         23 
 73.6          37 
 73.62         28 
 73.64         21 
 73.66         24 
 73.68         16 
 73.7          17 
 73.72         29 
 73.74         22 
 73.76         23 
 73.78         25 
 73.8          27 
 73.82         18 
 73.84         25 
 73.86         24 
 73.88         19 
 73.9          30 
 73.92         23 
 73.93999      14 
 73.96         21 
 73.98         28 
 74            30 
 74.02         32 
 74.04         23 
 74.06         33 
 74.08         25 
 74.1          28 
 74.12         39 
 74.14         21 
 74.16         27 
 74.18         19 
 74.2          19 
 74.22         24 
 74.24         20 
 74.26         26 
 74.28         28 
 74.3          17 
 74.32         22 
 74.34         20 
 74.36         22 
 74.38         30 
 74.4          26 
 74.42         24 
 74.43999      39 
 74.46         25 
 74.48         14 
 74.5          34 
 74.52         19 
 74.54         23 
 74.56         27 
 74.58         30 
 74.6          29 
 74.62         25 
 74.64         22 
 74.66         18 
 74.68         19 
 74.7          30 
 74.72         31 
 74.74         22 
 74.76         25 
 74.78         22 
 74.8          24 
 74.82         24 
 74.84         27 
 74.86         28 
 74.88         23 
 74.9          28 
 74.92         27 
 74.93999      18 
 74.96         23 
 74.98         25 
 75            21 
