EC-Lab ASCII FILE
Nb header lines : 3                           
mode	ox/red	error	control changes	Ns changes	counter inc.	Ns	time/s	control/V/mA	Ewe/V	dq/mA.h	<I>/mA	P/W	(Q-Qo)/mA.h	x	Capacity/mA.h
1	0	0	1	1	0	1	36367,28	-0,100000001	4,18844843	0	0	0	0	0	0
1	0	0	1	0	0	1	36377,28	-0,100000001	3,79070139	-0,0002763635371423168	-0,099490873185917862	0,000377140183	-0,0002763635371423168	1,031149514550741E-005	0,0002763635371423168
1	0	0	1	0	0	1	36387,28	-0,100000001	3,45571947	-0,00027773701474236122	-0,099985325121012851	0,000345521228	-0,00055410055188467802	2,0674236586932749E-005	0,00055410055188467802
1	0	0	1	0	0	1	36397,28	-0,100000001	3,13097239	-0,00027773749411520032	-0,099985497695234611	0,000313051831	-0,00083183804599987827	3,1036995914403238E-005	0,00083183804599987827
1	0	0	1	0	0	1	36407,28	-0,100000001	2,82575941	-0,00027773778559350307	-0,099985602627423411	0,000282535271	-0,0011095758315933814	4,1399766117321107E-005	0,0011095758315933814
1	0	0	1	0	0	1	36417,28	-0,100000001	2,51890421	-0,00027773772396519782	-0,099985580441233549	0,0002518541	-0,0013873135555585792	5,1762534020804038E-005	0,0013873135555585792
1	0	0	1	0	0	1	36427,28	-0,100000001	2,25180483	-0,00027773783089220522	-0,099985618934956134	0,000225148106	-0,0016650513864507846	6,2125305913877376E-005	0,0016650513864507846
1	0	0	1	0	0	1	36437,28	-0,100000001	2,033149	-0,00027773779162971514	-0,09998560480045975	0,000203285628	-0,0019427891780804995	7,2488076342014426E-005	0,0019427891780804995
1	0	0	1	0	0	1	36447,28	-0,100000001	1,85016239	-0,0002777380635589361	-0,099985702694979098	0,000184989782	-0,0022205272416394355	8,2850856916196326E-005	0,0022205272416394355
1	0	0	1	0	0	1	36457,28	-0,100000001	1,702456	-0,00027773787584279971	-0,09998563511717015	0,000170221145	-0,0024982651174822352	9,3213630486436787E-005	0,0024982651174822352
1	0	0	1	0	0	1	36467,28	-0,100000001	1,58996785	-0,00027773759012255402	-0,099985532257881882	0,00015897378	-0,0027760027076047894	0,00010357639339607074	0,0027760027076047894
1	0	0	1	0	0	1	36477,28	-0,100000001	1,51937401	-0,0002777373932769729	-0,099985461393472806	0,000151915316	-0,0030537401008817626	0,00011393914896113138	0,0030537401008817626
1	0	0	1	0	0	1	36487,28	-0,100000001	1,48473585	-0,0002777378964614537	-0,099985642539885555	0,000148452265	-0,003331477997343216	0,00012430192330068155	0,003331477997343216
1	0	0	1	0	0	1	36497,28	-0,100000001	1,46388423	-0,00027773828666119114	-0,099985783011790771	0,000146367616	-0,003609216284004407	0,00013466471219910854	0,003609216284004407
1	0	0	1	0	0	1	36507,28	-0,100000001	1,44836009	-0,00027773810433596371	-0,09998571737470903	0,00014481532	-0,0038869543883403712	0,00014502749429473619	0,0038869543883403712
1	0	0	1	0	0	1	36517,28	-0,100000001	1,4355092	-0,00027773771607254941	-0,099985577599880141	0,000143530211	-0,0041646921044129203	0,00015539026190373379	0,0041646921044129203
1	0	0	1	0	0	1	36527,28	-0,100000001	1,42431951	-0,00027773763439183434	-0,099985548194822746	0,000142411373	-0,0044424297388047546	0,00016575302646511411	0,0044424297388047546
1	0	0	1	0	0	1	36537,28	-0,100000001	1,41416109	-0,00027773742261073658	-0,099985471953627712	0,000141395562	-0,0047201671614154912	0,0001761157831246569	0,0047201671614154912
1	0	0	1	0	0	1	36547,28	-0,100000001	1,40461361	-0,00027773736755715475	-0,099985452134338291	0,000140440927	-0,0049979045289726464	0,00018647853773007658	0,0049979045289726464
1	0	0	1	0	0	1	36557,28	-0,100000001	1,3956008	-0,00027773733860668208	-0,099985441712168166	0,000139539756	-0,005275641867579328	0,00019684129125531514	0,005275641867579328
1	0	0	1	0	0	1	36567,28	-0,100000001	1,38695085	-0,00027773742083998192	-0,099985471316156032	0,000138674935	-0,0055533792884193101	0,0002072040478487887	0,0055533792884193101
1	0	0	1	0	0	1	36577,28	-0,100000001	1,37870181	-0,00027773766766943862	-0,099985560174760294	0,000137850278	-0,0058311169560887488	0,00021756681365180118	0,0058311169560887488
1	0	0	1	0	0	1	36587,28	-0,100000001	1,37060559	-0,00027773751949022211	-0,099985506830242445	0,000137040697	-0,0061088544755789709	0,00022792957392604787	0,0061088544755789709
1	0	0	1	0	0	1	36597,28	-0,100000001	1,36277664	-0,00027773682127479046	-0,099985255472687514	0,000136257571	-0,0063865912968537613	0,00023829230814893802	0,0063865912968537613
1	0	0	1	0	0	1	36607,28	-0,100000001	1,35508144	-0,0002777372687438296	-0,099985416561541325	0,000135488386	-0,0066643285655975898	0,00024865505906749962	0,0066643285655975898
1	0	0	1	0	0	1	36617,28	-0,100000001	1,34738612	-0,00027773762299285994	-0,099985544091192	0,000134719128	-0,0069420661885904499	0,00025901782320356883	0,0069420661885904499
1	0	0	1	0	0	1	36627,28	-0,100000001	1,33992004	-0,00027773743240618042	-0,099985475479987494	0,000133972542	-0,0072198036209966298	0,00026938058022859286	0,0072198036209966298
1	0	0	1	0	0	1	36637,28	-0,100000001	1,33249211	-0,00027773760495955744	-0,099985537599203098	0,000133229943	-0,0074975412259561882	0,00027974334369181536	0,0074975412259561882
1	0	0	1	0	0	1	36647,28	-0,100000001	1,32542706	-0,00027773760506179597	-0,099985537636008986	0,000132523535	-0,007775278831017984	0,00029010610715885248	0,007775278831017984
1	0	0	1	0	0	1	36657,28	-0,100000001	1,32046235	-0,00027773760612515942	-0,099985538018819802	0,00013202714	-0,0080530164371431424	0,00030046887066556512	0,0080530164371431424
1	0	0	1	0	0	1	36667,28	-0,100000001	1,31771266	-0,00027773752987633146	-0,099985510569241792	0,000131752167	-0,0083307539670194752	0,00031083163132733152	0,0083307539670194752
1	0	0	1	0	0	1	36677,28	-0,100000001	1,31559312	-0,00027773738952063853	-0,099985460041192435	0,00013154019	-0,0086084913565401126	0,00032119438675223827	0,0086084913565401126
1	0	0	1	0	0	1	36687,28	-0,100000001	1,31332088	-0,00027773724995139568	-0,099985409796265101	0,000131312932	-0,0088862286064915098	0,00033155713696962893	0,0088862286064915098
1	0	0	1	0	0	1	36697,28	-0,100000001	1,31081939	-0,00027773756305169728	-0,099985522512373478	0,00013106296	-0,0091639661695432064	0,0003419198988692128	0,0091639661695432064
1	0	0	1	0	0	1	36707,28	-0,100000001	1,30757332	-0,00027773772790572707	-0,09998558185982409	0,000130738481	-0,0094417038974489344	0,00035228266691972224	0,0094417038974489344
1	0	0	1	0	0	1	36717,28	-0,100000001	1,3040216	-0,00027773824680348237	-0,099985768663015642	0,000130383603	-0,009719442144252416	0,00036264545433100448	0,009719442144252416
1	0	0	1	0	0	1	36727,28	-0,100000001	1,29959166	-0,00027773781179512538	-0,099985612060007411	0,000129940468	-0,0099971799560475418	0,00037300822551154016	0,0099971799560475418
1	0	0	1	0	0	1	36737,28	-0,100000001	1,29474151	-0,00027773751900179517	-0,099985506654408755	0,00012945538	-0,010274917475049336	0,00038337098576756288	0,010274917475049336
1	0	0	1	0	0	1	36747,28	-0,100000001	1,28929949	-0,00027773759099261629	-0,099985532571104307	0,000128911299	-0,010552655066041952	0,0003937337487096601	0,010552655066041952
1	0	0	1	0	0	1	36757,28	-0,100000001	1,28353274	-0,00027773769048518602	-0,099985568388429338	0,000128334752	-0,010830392756527139	0,00040409651536395878	0,010830392756527139
1	0	0	1	0	0	1	36767,28	-0,100000001	1,27736509	-0,0002777375879473984	-0,099985531474825856	0,000127718027	-0,011108130344474538	0,00041445927819243475	0,011108130344474538
1	0	0	1	0	0	1	36777,28	-0,100000001	1,2708919	-0,00027773755881769792	-0,099985520988133709	0,000127070787	-0,011385867903292235	0,00042482203993404237	0,011385867903292235
1	0	0	1	0	0	1	36787,28	-0,100000001	1,26455247	-0,00027773806932402982	-0,099985704770412851	0,000126437168	-0,011663605972616266	0,00043518482072332768	0,011663605972616266
1	0	0	1	0	0	1	36797,28	-0,100000001	1,25809836	-0,00027773813424466387	-0,099985728141841062	0,000125791878	-0,011941344106860931	0,00044554760393488915	0,011941344106860931
1	0	0	1	0	0	1	36807,28	-0,100000001	1,25137699	-0,00027773804066247408	-0,099985694452252787	0,000125119797	-0,012219082147523405	0,00045591038365477325	0,012219082147523405
1	0	0	1	0	0	1	36817,28	-0,100000001	1,24463642	-0,00027773809425905344	-0,099985713747021338	0,000124445854	-0,012496820241782456	0,00046627316537441786	0,012496820241782456
1	0	0	1	0	0	1	36827,28	-0,100000001	1,2380296	-0,0002777382091006471	-0,099985755089994982	0,000123785328	-0,012774558450883106	0,00047663595137895667	0,012774558450883106
1	0	0	1	0	0	1	36837,28	-0,100000001	1,23128915	-0,00027773804487743312	-0,099985695969638054	0,000123111298	-0,013052296495760538	0,00048699873125610656	0,013052296495760538
1	0	0	1	0	0	1	36847,28	-0,100000001	1,22445309	-0,00027773822543025018	-0,09998576096865207	0,000122427868	-0,013330034721190789	0,00049736151786992486	0,013330034721190789
1	0	0	1	0	0	1	36857,28	-0,100000001	1,21757901	-0,00027773767354711891	-0,099985562290725184	0,000121740319	-0,013607772394737907	0,00050772428389224154	0,013607772394737907
1	0	0	1	0	0	1	36867,28	-0,100000001	1,21066666	-0,00027773766884414685	-0,099985560597655245	0,000121049183	-0,013885510063582054	0,0005180870497390839	0,013885510063582054
1	0	0	1	0	0	1	36877,28	-0,100000001	1,20384979	-0,00027773794208135869	-0,099985658963051328	0,000120367717	-0,014163248005663414	0,00052844982578077414	0,014163248005663414
1	0	0	1	0	0	1	36887,28	-0,100000001	1,1967274	-0,00027773751083595885	-0,099985503714707674	0,000119655393	-0,014440985516499373	0,00053881258573211859	0,014440985516499373
1	0	0	1	0	0	1	36897,28	-0,100000001	1,189605	-0,00027773783575991789	-0,099985620687332698	0,000118943397	-0,01471872335225929	0,0005491753578068128	0,01471872335225929
1	0	0	1	0	0	1	36907,28	-0,100000001	1,18225336	-0,00027773807153022954	-0,099985705564644736	0,000118208438	-0,01499646142378952	0,0005595381386784144	0,01499646142378952
1	0	0	1	0	0	1	36917,28	-0,100000001	1,17494011	-0,00027773814585639373	-0,099985732322063795	0,000117477248	-0,015274199569645914	0,00056990092232322509	0,015274199569645914
1	0	0	1	0	0	1	36927,28	-0,100000001	1,16747391	-0,00027773798198004563	-0,099985673326578598	0,000116730662	-0,015551937551625962	0,00058026369985358886	0,015551937551625962
1	0	0	1	0	0	1	36937,28	-0,100000001	1,15977871	-0,00027773812490329146	-0,099985724778947008	0,000115961317	-0,015829675676529251	0,0005906264827166112	0,015829675676529251
1	0	0	1	0	0	1	36947,28	-0,100000001	1,15193069	-0,00027773816860260234	-0,099985740510698893	0,000115176641	-0,016107413845131853	0,00060098926721011354	0,016107413845131853
1	0	0	1	0	0	1	36957,28	-0,100000001	1,14400625	-0,00027773801517817706	-0,099985685277905882	0,000114384246	-0,016385151860310032	0,00061135204597914419	0,016385151860310032
1	0	0	1	0	0	1	36967,28	-0,100000001	1,1359483	-0,00027773797590368323	-0,099985671139088141	0,00011357855	-0,016662889836213715	0,00062171482328279091	0,016662889836213715
1	0	0	1	0	0	1	36977,28	-0,100000001	1,12743199	-0,0002777375981112321	-0,09998553513380599	0,000112726892	-0,016940627434324947	0,00063207758649049306	0,016940627434324947
1	0	0	1	0	0	1	36987,28	-0,100000001	1,1189729	-0,00027773798018859491	-0,099985672681656346	0,000111881258	-0,017218365414513542	0,00064244036395401536	0,017218365414513542
1	0	0	1	0	0	1	36997,28	-0,100000001	1,11028469	-0,00027773773990695674	-0,099985586180266752	0,000111012465	-0,017496103154420496	0,00065280313245230669	0,017496103154420496
1	0	0	1	0	0	1	37007,28	-0,100000001	1,10123372	-0,00027773802176200682	-0,099985687648084608	0,000110107612	-0,017773841176182506	0,00066316591146698906	0,017773841176182506
1	0	0	1	0	0	1	37017,28	-0,100000001	1,09214449	-0,00027773789483184618	-0,099985641953226854	0,000109198765	-0,018051579071014352	0,00067352868574573645	0,018051579071014352
1	0	0	1	0	0	1	37027,28	-0,100000001	1,08282626	-0,00027773806136846541	-0,099985701906409664	0,000108267144	-0,018329317132382819	0,00068389146623818893	0,018329317132382819
1	0	0	1	0	0	1	37037,28	-0,100000001	1,07325971	-0,00027773786182867158	-0,099985630072084019	0,000107310545	-0,018607054994211488	0,00069425423928554342	0,018607054994211488
1	0	0	1	0	0	1	37047,28	-0,100000001	1,06321573	-0,00027773784776156147	-0,09998562500792439	0,000106306288	-0,018884792841973053	0,0007046170118080352	0,018884792841973053
1	0	0	1	0	0	1	37057,28	-0,100000001	1,05334365	-0,00027773808818558851	-0,099985711560573965	0,000105319312	-0,019162530930158637	0,00071497979330107046	0,019162530930158637
1	0	0	1	0	0	1	37067,28	-0,100000001	1,04343343	-0,00027773818361676403	-0,099985745915797082	0,000104328472	-0,019440269113775402	0,00072534257835477133	0,019440269113775402
1	0	0	1	0	0	1	37077,28	-0,100000001	1,03316033	-0,00027773819362247984	-0,099985749517854771	0,00010330131	-0,019718007307397882	0,00073570536378179891	0,019718007307397882
1	0	0	1	0	0	1	37087,28	-0,100000001	1,02296364	-0,00027773808833666973	-0,0999857116149632	0,000102281745	-0,01999574539573455	0,00074606814528047142	0,01999574539573455
1	0	0	1	0	0	1	37097,28	-0,100000001	1,01320624	-0,00027773816010728477	-0,099985737452384563	0,00010130617	-0,020273483555841837	0,00075643092945700198	0,020273483555841837
1	0	0	1	0	0	1	37107,28	-0,100000001	1,00369692	-0,00027773864867248467	-0,099985913335856205	0,000100355552	-0,02055122220451432	0,00076679373186255706	0,02055122220451432
1	0	0	1	0	0	1	37117,28	-0,100000001	0,9951424	-0,0002777393479897744	-0,099986165090080038	9,95004739E-005	-0,020828961552504096	0,00077715656036058048	0,020828961552504096
1	0	0	1	0	0	1	37127,28	-0,100000001	0,987179816	-0,00027773995725396608	-0,099986384425188634	9,87045423E-005	-0,021106701509758061	0,00078751941159107008	0,021106701509758061
1	0	0	1	0	0	1	37137,28	-0,100000001	0,980133772	-0,00027773984875157475	-0,099986345364327834	9,79999968E-005	-0,021384441358509635	0,0007978822587731895	0,021384441358509635
1	0	0	1	0	0	1	37147,28	-0,100000001	0,973966122	-0,00027773990214698845	-0,099986364586676723	9,73833303E-005	-0,021662181260656624	0,00080824510794756365	0,021662181260656624
1	0	0	1	0	0	1	37157,28	-0,100000001	0,968466818	-0,00027773967080232173	-0,099986281302596851	9,68333989E-005	-0,021939920931458947	0,00081860794849015718	0,021939920931458947
1	0	0	1	0	0	1	37167,28	-0,100000001	0,963750362	-0,00027774007992073891	-0,09998642858522679	9,63619532E-005	-0,022217661011379686	0,00082897080429750912	0,022217661011379686
1	0	0	1	0	0	1	37177,28	-0,100000001	0,959454	-0,00027773992753939501	-0,099986373727943066	9,59323297E-005	-0,022495400938919082	0,0008393336544193079	0,022495400938919082
1	0	0	1	0	0	1	37187,28	-0,100000001	0,955615938	-0,00027773992853942845	-0,09998637408795511	9,55485739E-005	-0,022773140867458509	0,00084969650457841958	0,022773140867458509
1	0	0	1	0	0	1	37197,28	-0,100000001	0,952465296	-0,00027773993134746947	-0,099986375098849856	9,5233554E-005	-0,023050880798805978	0,00086005935484230298	0,023050880798805978
1	0	0	1	0	0	1	37207,28	-0,100000001	0,949524641	-0,00027773996436761488	-0,099986386986102208	9,49395398E-005	-0,023328620763173594	0,00087042220633821235	0,023328620763173594
1	0	0	1	0	0	1	37217,28	-0,100000001	0,94677496	-0,00027773974659831984	-0,099986308589156122	9,46645305E-005	-0,023606360509771917	0,00088078504970885658	0,023606360509771917
1	0	0	1	0	0	1	37227,28	-0,100000001	0,944407225	-0,00027773984762074221	-0,099986344957228109	9,4427829E-005	-0,023884100357392659	0,00089114789684878323	0,023884100357392659
1	0	0	1	0	0	1	37237,28	-0,100000001	0,942230403	-0,00027773971332444083	-0,099986296610559718	9,42101251E-005	-0,024161840070717101	0,00090151073897793421	0,024161840070717101
1	0	0	1	0	0	1	37247,28	-0,100000001	0,940301836	-0,00027773995387223034	-0,099986383207763763	9,40173777E-005	-0,024439580024589328	0,00091187359008224666	0,024439580024589328
1	0	0	1	0	0	1	37257,28	-0,100000001	0,938545108	-0,00027773970330299603	-0,099986293002839578	9,38416488E-005	-0,024717319727892323	0,00092223643183748403	0,024717319727892323
1	0	0	1	0	0	1	37267,28	-0,100000001	0,936864734	-0,00027773999916596544	-0,099986399513508378	9,36737342E-005	-0,024995059727058288	0,00093259928463176666	0,024995059727058288
1	0	0	1	0	0	1	37277,28	-0,100000001	0,935127079	-0,00027773990900276432	-0,099986367054756045	9,34999625E-005	-0,025272799636061053	0,00094296213406193894	0,025272799636061053
1	0	0	1	0	0	1	37287,28	-0,100000001	0,933523118	-0,00027774008684895104	-0,099986431079383142	9,33396441E-005	-0,025550539722910003	0,00095332499012779162	0,025550539722910003
1	0	0	1	0	0	1	37297,28	-0,100000001	0,931842744	-0,00027774015480611059	-0,099986455543960512	9,31716495E-005	-0,025828279877716115	0,00096368784872921728	0,025828279877716115
1	0	0	1	0	0	1	37307,28	-0,100000001	0,93016243	-0,00027774014811507526	-0,099986453135187827	9,30036404E-005	-0,026106020025831187	0,00097405070708099149	0,026106020025831187
1	0	0	1	0	0	1	37317,28	-0,100000001	0,928462982	-0,00027774008513531754	-0,099986430462475072	9,28336958E-005	-0,026383760110966506	0,00098441356308290624	0,026383760110966506
1	0	0	1	0	0	1	37327,28	-0,100000001	0,926687121	-0,0002777397852457232	-0,099986322502221312	9,26560388E-005	-0,026661499896212227	0,0009947764078955369	0,026661499896212227
1	0	0	1	0	0	1	37337,28	-0,100000001	0,924930394	-0,000277739905519204	-0,09998636580067433	9,24804262E-005	-0,02693923980173143	0,001005139257195733	0,02693923980173143
1	0	0	1	0	0	1	37347,28	-0,100000001	0,923040032	-0,0002777398791052401	-0,099986356291647334	9,22914114E-005	-0,027216979680836672	0,0010155021055103883	0,027216979680836672
1	0	0	1	0	0	1	37357,28	-0,100000001	0,921206892	-0,00027774034655756422	-0,099986524574483712	9,21082756E-005	-0,027494720027394237	0,0010258649712663187	0,027494720027394237
1	0	0	1	0	0	1	37367,28	-0,100000001	0,91920197	-0,0002777407381853296	-0,099986665560478989	9,19079393E-005	-0,027772460765579568	0,0010362278516344075	0,027772460765579568
1	0	0	1	0	0	1	37377,28	-0,100000001	0,917158782	-0,00027774046360701325	-0,099986566712285274	9,17035577E-005	-0,028050201229186579	0,0010465907217576101	0,028050201229186579
1	0	0	1	0	0	1	37387,28	-0,100000001	0,915096521	-0,0002777402779766255	-0,099986499885345818	9,14972989E-005	-0,028327941507163206	0,0010569535849546933	0,028327941507163206
1	0	0	1	0	0	1	37397,28	-0,100000001	0,913015187	-0,00027774053184605306	-0,099986591278339558	9,12892792E-005	-0,028605682039009258	0,0010673164576239861	0,028605682039009258
1	0	0	1	0	0	1	37407,28	-0,100000001	0,911029339	-0,00027774091854194797	-0,099986730488861466	9,1090842E-005	-0,028883422957551206	0,0010776793447214226	0,028883422957551206
1	0	0	1	0	0	1	37417,28	-0,100000001	0,908814311	-0,00027774052642989491	-0,099986589328522637	9,08692455E-005	-0,029161163483981101	0,0010880422171886314	0,029161163483981101
1	0	0	1	0	0	1	37427,28	-0,100000001	0,90658021	-0,00027774035346797773	-0,099986527062232563	9,06458081E-005	-0,029438903837449082	0,0010984050832023984	0,029438903837449082
1	0	0	1	0	0	1	37437,28	-0,100000001	0,904441595	-0,00027774035222000544	-0,099986526612962534	9,0431975E-005	-0,029716644189669088	0,0011087679491696022	0,029716644189669088
1	0	0	1	0	0	1	37447,28	-0,100000001	0,902092934	-0,00027774032613717846	-0,099986517223144845	9,01971289E-005	-0,029994384515806266	0,0011191308141636202	0,029994384515806266
1	0	0	1	0	0	1	37457,28	-0,100000001	0,899706066	-0,00027774031020576755	-0,099986511487836928	8,99584702E-005	-0,030272124826012032	0,0011294936785632162	0,030272124826012032
1	0	0	1	0	0	1	37467,28	-0,100000001	0,897433758	-0,00027774001490780048	-0,099986405180568973	8,97311766E-005	-0,030549864840919827	0,0011398565319448477	0,030549864840919827
1	0	0	1	0	0	1	37477,28	-0,100000001	0,89521873	-0,00027773953272112541	-0,099986231593366272	8,95095509E-005	-0,030827604373640954	0,0011502193673354461	0,030827604373640954
1	0	0	1	0	0	1	37487,28	-0,100000001	0,892812788	-0,00027773981466641027	-0,099986333093668634	8,92690805E-005	-0,031105344188307366	0,0011605822132458026	0,031105344188307366
1	0	0	1	0	0	1	37497,28	-0,100000001	0,890540481	-0,00027774019809605347	-0,09998647112833993	8,90419979E-005	-0,031383084386403424	0,0011709450734624341	0,031383084386403424
1	0	0	1	0	0	1	37507,28	-0,100000001	0,888153613	-0,0002777400698616273	-0,099986424963946598	8,88033028E-005	-0,03166082445626505	0,0011813079288944669	0,03166082445626505
1	0	0	1	0	0	1	37517,28	-0,100000001	0,885843158	-0,00027773975653201341	-0,099986312165285811	8,85721893E-005	-0,031938564212797069	0,0011916707726357507	0,031938564212797069
1	0	0	1	0	0	1	37527,28	-0,100000001	0,883437157	-0,00027773954337711136	-0,099986235429521216	8,83315588E-005	-0,032216303756174182	0,0012020336084239382	0,032216303756174182
1	0	0	1	0	0	1	37537,28	-0,100000001	0,881031215	-0,0002777396773704224	-0,099986283667113088	8,80910375E-005	-0,032494043433544602	0,0012123964492115965	0,032494043433544602
1	0	0	1	0	0	1	37547,28	-0,100000001	0,878644347	-0,00027773959490160144	-0,0999862539783376	8,7852357E-005	-0,032771783028446202	0,0012227592869222323	0,032771783028446202
1	0	0	1	0	0	1	37557,28	-0,100000001	0,876181126	-0,00027774010078815952	-0,099986436097498176	8,76062259E-005	-0,033049523129234362	0,0012331221435081757	0,033049523129234362
1	0	0	1	0	0	1	37567,28	-0,100000001	0,873756051	-0,00027774017314861216	-0,099986462147261082	8,73637764E-005	-0,033327263302382976	0,0012434850027939848	0,033327263302382976
1	0	0	1	0	0	1	37577,28	-0,100000001	0,871197343	-0,00027773994130806787	-0,099986378684665293	8,71078664E-005	-0,03360500324369104	0,0012538478534295114	0,03360500324369104
1	0	0	1	0	0	1	37587,28	-0,100000001	0,868982315	-0,00027774021090277366	-0,099986475738759194	8,68864809E-005	-0,033882743454593811	0,001264210714123979	0,033882743454593811
1	0	0	1	0	0	1	37597,28	-0,100000001	0,86644274	-0,00027774042058322163	-0,099986551223720333	8,66326227E-005	-0,03416048387517703	0,0012745735826419059	0,03416048387517703
1	0	0	1	0	0	1	37607,28	-0,100000001	0,863883972	-0,00027774033748731014	-0,09998652130919223	8,63767564E-005	-0,034438224212664339	0,0012849364480594125	0,034438224212664339
1	0	0	1	0	0	1	37617,28	-0,100000001	0,861420751	-0,0002777401833563215	-0,099986465822036442	8,61304143E-005	-0,034715964396020666	0,0012952993077260851	0,034715964396020666
1	0	0	1	0	0	1	37627,28	-0,100000001	0,858995676	-0,00027773996030083958	-0,099986385522063104	8,58878702E-005	-0,034993704356321498	0,0013056621590702576	0,034993704356321498
1	0	0	1	0	0	1	37637,28	-0,100000001	0,856303334	-0,0002777399304711984	-0,099986374783392282	8,56186671E-005	-0,035271444286792698	0,0013160250093014461	0,035271444286792698
1	0	0	1	0	0	1	37647,28	-0,100000001	0,85382098	-0,00027774012401824198	-0,099986444460327834	8,53705205E-005	-0,035549184410810938	0,0013263878667541347	0,035549184410810938
1	0	0	1	0	0	1	37657,28	-0,100000001	0,851415038	-0,00027774061009701757	-0,09998661944868672	8,51301083E-005	-0,035826925020907962	0,0013367507423430763	0,035826925020907962
1	0	0	1	0	0	1	37667,28	-0,100000001	0,84885633	-0,00027774039514321421	-0,09998654206531767	8,48742056E-005	-0,036104665416051174	0,0013471136099118026	0,036104665416051174
1	0	0	1	0	0	1	37677,28	-0,100000001	0,846354902	-0,0002777400095226864	-0,09998640324192791	8,46239855E-005	-0,036382405425573862	0,0013574764630925085	0,036382405425573862
1	0	0	1	0	0	1	37687,28	-0,100000001	0,843738854	-0,00027774003303133776	-0,099986411705042381	8,43624221E-005	-0,036660145458605203	0,0013678393171503536	0,036660145458605203
1	0	0	1	0	0	1	37697,28	-0,100000001	0,841199219	-0,00027774008818012141	-0,099986431558604467	8,41085057E-005	-0,036937885546785325	0,0013782021732658742	0,036937885546785325
1	0	0	1	0	0	1	37707,28	-0,100000001	0,838525951	-0,00027774040411454109	-0,099986545294995341	8,38413107E-005	-0,037215625950899859	0,0013885650411693325	0,037215625950899859
1	0	0	1	0	0	1	37717,28	-0,100000001	0,835986316	-0,0002777405403471655	-0,099986594338740045	8,35874234E-005	-0,037493366491247027	0,0013989279141558134	0,037493366491247027
1	0	0	1	0	0	1	37727,28	-0,100000001	0,833293974	-0,00027773997863216531	-0,099986392121340339	8,33180602E-005	-0,037771106469879194	0,0014092907661839526	0,037771106469879194
1	0	0	1	0	0	1	37737,28	-0,100000001	0,830887973	-0,00027773989091937738	-0,099986360544736742	8,30774661E-005	-0,038048846360798573	0,0014196536149394094	0,038048846360798573
1	0	0	1	0	0	1	37747,28	-0,100000001	0,828176498	-0,00027773982267040346	-0,099986335975106189	8,28063348E-005	-0,038326586183468979	0,0014300164611484053	0,038326586183468979
1	0	0	1	0	0	1	37757,28	-0,100000001	0,825484157	-0,00027773987762919728	-0,09998635576027191	8,25371535E-005	-0,038604326061098176	0,0014403793094079877	0,038604326061098176
1	0	0	1	0	0	1	37767,28	-0,100000001	0,822868109	-0,00027774013779684902	-0,099986449420626368	8,22756629E-005	-0,038882066198895027	0,001450742167374775	0,038882066198895027
1	0	0	1	0	0	1	37777,28	-0,100000001	0,820404887	-0,0002777398877305289	-0,099986359396751296	8,20292989E-005	-0,039159806086625555	0,0014611050160112515	0,039159806086625555
1	0	0	1	0	0	1	37787,28	-0,100000001	0,817655206	-0,00027774007457701699	-0,099986426661486886	8,17544205E-005	-0,039437546161202566	0,0014714678716192218	0,039437546161202566
1	0	0	1	0	0	1	37797,28	-0,100000001	0,815001011	-0,00027773994198855427	-0,099986378929640397	8,14890009E-005	-0,039715286103191123	0,0014818307222801386	0,039715286103191123
1	0	0	1	0	0	1	37807,28	-0,100000001	0,812461436	-0,0002777398300870425	-0,09998633864509623	8,12350409E-005	-0,039993025933278163	0,0014921935687658592	0,039993025933278163
1	0	0	1	0	0	1	37817,28	-0,100000001	0,809807241	-0,00027773967698382006	-0,099986283527936256	8,09696139E-005	-0,040270765610261984	0,0015025564095390928	0,040270765610261984
1	0	0	1	0	0	1	37827,28	-0,100000001	0,807191193	-0,00027773954606842662	-0,099986236398394714	8,07080069E-005	-0,040548505156330413	0,001512919245427697	0,040548505156330413
1	0	0	1	0	0	1	37837,28	-0,100000001	0,804441571	-0,00027773973423656493	-0,099986304138924365	8,0433143E-005	-0,040826244890566976	0,0015232820883371075	0,040826244890566976
1	0	0	1	0	0	1	37847,28	-0,100000001	0,801730096	-0,00027773974101907677	-0,099986306580628621	8,01620336E-005	-0,041103984631586054	0,0015336449314995824	0,041103984631586054
1	0	0	1	0	0	1	37853,63	-0,100000001	0,800049722	-0,00017639242712366912	-0,099986259872871142	7,99939808E-005	-0,041280377058709722	0,0015402263701177072	0,041280377058709722
1	1	0	0	1	0	2	37853,63	0,100000001	0,81124109	5,4886018236478176E-009	0,032931610975112685	2,67154755E-005	-0,041280371570107904	0,0015402261653305936	5,4886018236478176E-009
1	1	0	0	0	0	2	37863,63	0,100000001	0,832581043	0,00027780624368786806	0,10001024754134891	8,32666337E-005	-0,041002565326420032	0,0015298608408641325	0,00027781173228969171
1	1	0	0	0	0	2	37873,63	0,100000001	0,838519573	0,00027780635461625126	0,10001028747556677	8,38605847E-005	-0,040724758971803782	0,0015194955122587834	0,00055561808690594298
1	1	0	0	0	0	2	37883,63	0,100000001	0,843560636	0,0002778066540819903	0,10001039528323264	8,43648304E-005	-0,040446952317721792	0,0015091301724799658	0,00083342474098793331
1	1	0	0	0	0	2	37893,63	0,100000001	0,848277032	0,00027780658928760224	0,10001037195725296	8,48365016E-005	-0,040169145728434189	0,0014987648351187133	0,0011112313302755355
1	1	0	0	0	0	2	37903,63	0,100000001	0,852458835	0,00027780671777658992	0,10001041821328845	8,52547673E-005	-0,039891339010657606	0,0014883994929633645	0,0013890380480521254
1	1	0	0	0	0	2	37913,63	0,100000001	0,856583357	0,00027780681050361862	0,10001045159501872	8,5667285E-005	-0,039613532200153984	0,0014780341473482451	0,001666844858555744
1	1	0	0	0	0	2	37923,63	0,100000001	0,860669672	0,00027780713112942045	0,10001056702030717	8,60760629E-005	-0,039335725069024563	0,0014676687897701459	0,0019446519896851645
1	1	0	0	0	0	2	37933,63	0,100000001	0,864622295	0,00027780690552832352	0,10001048580391242	8,64712929E-005	-0,039057918163496243	0,0014573034406095277	0,002222458895213488
1	1	0	0	0	0	2	37943,63	0,100000001	0,868364871	0,00027780695901066067	0,10001050505755376	8,68456118E-005	-0,038780111204485581	0,0014469380894534106	0,0025002658542241488
1	1	0	0	0	0	2	37953,63	0,100000001	0,872183859	0,00027780693585218656	0,10001049672050309	8,72275414E-005	-0,038502304268633395	0,0014365727391613678	0,0027780727900763354
1	1	0	0	0	0	2	37963,63	0,100000001	0,875907362	0,00027780681459647085	0,10001045306844552	8,75998885E-005	-0,038224497454036922	0,0014262073933935389	0,0030558796046728064
1	1	0	0	0	0	2	37973,63	0,100000001	0,879573584	0,00027780714925833875	0,10001057354671774	8,7966655E-005	-0,037946690304778586	0,0014158420351390254	0,003333686753931145
1	1	0	0	0	0	2	37983,63	0,100000001	0,883201659	0,00027780670490612589	0,10001041357992141	8,83293615E-005	-0,037668883599872454	0,0014054766934638907	0,003611493458837271
1	1	0	0	0	0	2	37993,63	0,100000001	0,886753321	0,00027780655863798326	0,10001036092339018	8,86845228E-005	-0,037391077041234477	0,001395111357246217	0,0038893000174752544
1	1	0	0	0	0	2	38003,63	0,100000001	0,89034313	0,00027780690738310416	0,10001048647163344	8,90436495E-005	-0,037113270133851373	0,0013847460080163938	0,0041671069248583584
1	1	0	0	0	0	2	38013,63	0,100000001	0,893856585	0,0002778066469530265	0,10001039271680566	8,93949473E-005	-0,036835463486898349	0,001374380668503567	0,004444913571811385
1	1	0	0	0	0	2	38023,63	0,100000001	0,89737004	0,00027780722315733629	0,1000106001503568	8,97465143E-005	-0,036557656263741011	0,0013640153074917829	0,0047227207949687206
1	1	0	0	0	0	2	38033,63	0,100000001	0,900711656	0,00027780681348923178	0,10001045266983946	9,00805826E-005	-0,036279849450251776	0,0013536499617652662	0,0050005276084579526
1	1	0	0	0	0	2	38043,63	0,100000001	0,904225111	0,00027780696247021363	0,1000105063029928	9,04320113E-005	-0,036002042487781562	0,0013432846104800688	0,0052783345709281664
1	1	0	0	0	0	2	38053,63	0,100000001	0,90747124	0,00027780732075456118	0,1000106352853577	9,07567737E-005	-0,035724235167027002	0,0013329192458268011	0,0055561418916827283
1	1	0	0	0	0	2	38063,63	0,100000001	0,910965621	0,00027780724582283034	0,10001060830993464	9,11062234E-005	-0,035446427921204173	0,0013225538839693368	0,005833949137505559
1	1	0	0	0	0	2	38073,63	0,100000001	0,914192677	0,00027780719215505654	0,10001058898953611	9,14289485E-005	-0,03516862072904912	0,0013121885241142891	0,0061117563296606157
1	1	0	0	0	0	2	38083,63	0,100000001	0,917496085	0,00027780734623057971	0,10001064445672437	9,17593716E-005	-0,034890813382818541	0,0013018231585104768	0,0063895636758911949
1	1	0	0	0	0	2	38093,63	0,100000001	0,920646727	0,00027780706120489373	0,10001054184747758	9,20743769E-005	-0,034613006321613645	0,001291457803541356	0,0066673707370960883
1	1	0	0	0	0	2	38103,63	0,100000001	0,923931062	0,00027780696680727933	0,10001050786433646	9,24028136E-005	-0,034335199354806368	0,001281092452094337	0,0069451777039033677
1	1	0	0	0	0	2	38113,63	0,100000001	0,927196324	0,00027780725289094781	0,10001061085445693	9,27294677E-005	-0,034057392101915418	0,0012707270899731517	0,0072229849567943142
1	1	0	0	0	0	2	38123,63	0,100000001	0,930385172	0,00027780761454916662	0,10001074105141547	9,30485112E-005	-0,033779584487366253	0,0012603617143580118	0,0075007925713434816
1	1	0	0	0	0	2	38133,63	0,100000001	0,933383048	0,00027780730796895094	0,10001063068253802	9,33482297E-005	-0,033501777179397299	0,0012499963501817923	0,0077785998793124326
1	1	0	0	0	0	2	38143,63	0,100000001	0,936552823	0,00027780738353522288	0,10001065788639587	9,3665265E-005	-0,033223969795862074	0,0012396309831860933	0,0080564072628476544
1	1	0	0	0	0	2	38153,63	0,100000001	0,939722538	0,00027780700195125408	0,10001052051616734	9,39821402E-005	-0,032946162793910822	0,0012292656304278054	0,0083342142647989094
1	1	0	0	0	0	2	38163,63	0,100000001	0,942682266	0,00027780724457030496	0,10001060785902552	9,42782281E-005	-0,032668355549340512	0,0012189002686170744	0,0086120215093692147
1	1	0	0	0	0	2	38173,63	0,100000001	0,945794761	0,00027780696876885162	0,1000105085705025	9,45894135E-005	-0,032390548580571667	0,0012085349170968666	0,0088898284781380659
1	1	0	0	0	0	2	38183,63	0,100000001	0,94886905	0,0002778067181400127	0,10001041834412066	9,48967936E-005	-0,032112741862431654	0,0011981695749279578	0,0091676351962780787
1	1	0	0	0	0	2	38193,63	0,100000001	0,951905131	0,00027780688790438902	0,10001047945929602	9,52004921E-005	-0,031834934974527264	0,0011878042264249118	0,0094454420841824678
1	1	0	0	0	0	2	38203,63	0,100000001	0,954845726	0,00027780658589634634	0,10001037073640085	9,54944771E-005	-0,031557128388630925	0,0011774388891901918	0,0097232486700788134
1	1	0	0	0	0	2	38213,63	0,100000001	0,957729042	0,00027780697337206867	0,10001051022766064	9,57829689E-005	-0,031279321415258854	0,0011670735374982318	0,010001055643450883
1	1	0	0	0	0	2	38223,63	0,100000001	0,960650563	0,00027780700972055398	0,10001052331311531	9,6075164E-005	-0,031001514405538298	0,0011567081844500608	0,010278862653171437
1	1	0	0	0	0	2	38233,63	0,100000001	0,963495731	0,00027780683732363914	0,10001046125022608	9,6359654E-005	-0,030723707568214656	0,0011463428378342504	0,010556669490495075
1	1	0	0	0	0	2	38243,63	0,100000001	0,966188133	0,00027780730553840598	0,10001062980754182	9,66290827E-005	-0,030445900262676256	0,0011359774737487178	0,010834476796033483
1	1	0	0	0	0	2	38253,63	0,100000001	0,968975961	0,00027780704035692746	0,10001053434220976	9,69078028E-005	-0,030168093222319328	0,0011256121195574626	0,01111228383639041
1	1	0	0	0	0	2	38263,63	0,100000001	0,971782923	0,0002778068042000135	0,10001044932572088	9,71884438E-005	-0,029890286418119315	0,0011152467741775392	0,011390090640590424
1	1	0	0	0	0	2	38273,63	0,100000001	0,974513471	0,00027780689767789507	0,10001048297775821	9,74615614E-005	-0,029612479520441414	0,0011048814253098304	0,011667897538268322
1	1	0	0	0	0	2	38283,63	0,100000001	0,977664173	0,00027780736081219379	0,10001064970610542	9,77768286E-005	-0,029334672159629222	0,0010945160591619584	0,011945704899080515
1	1	0	0	0	0	2	38293,63	0,100000001	0,981253982	0,00027780695084937744	0,10001050211949181	9,81357007E-005	-0,029056865208779846	0,0010841507083103501	0,012223511849929891
1	1	0	0	0	0	2	38303,63	0,100000001	0,985225737	0,0002778071225778096	0,10001056394172726	9,85329825E-005	-0,028779058086202035	0,0010737853510513232	0,012501318972507699
1	1	0	0	0	0	2	38313,63	0,100000001	0,990343153	0,00027780702853244211	0,10001053008539504	9,90447443E-005	-0,028501251057669594	0,0010634199973012554	0,012779126001040141
1	1	0	0	0	0	2	38323,63	0,100000001	0,99654901	0,00027780746321752666	0,10001068657202518	9,96655508E-005	-0,028223443594452064	0,0010530546273325027	0,013056933464257669
1	1	0	0	0	0	2	38333,63	0,100000001	1,00422513	0,0002778076565493312	0,1000107561714747	0,000100433317	-0,027945635937902736	0,0010426892501502803	0,013334741120807002
1	1	0	0	0	0	2	38343,63	0,100000001	1,01358175	0,00027780705137343869	0,10001053830815379	0,00010136886	-0,027667828886529296	0,0010323238955479843	0,013612548172180438
1	1	0	0	0	0	2	38353,63	0,100000001	1,023893	0,00027780682071919245	0,10001045527262528	0,000102400008	-0,027390022065810102	0,0010219585495517083	0,01389035499289963
1	1	0	0	0	0	2	38363,63	0,100000001	1,03458607	0,00027780661065710915	0,10001037965027544	0,000103469349	-0,027112215455152995	0,001011593211393131	0,014168161603556739
1	1	0	0	0	0	2	38373,63	0,100000001	1,045241	0,00027780683000220192	0,10001045861450869	0,000104535029	-0,026834408625150794	0,0010012278650504934	0,014445968433558944
1	1	0	0	0	0	2	38383,63	0,100000001	1,05564773	0,00027780723860280378	0,10001060571072509	0,000105575971	-0,02655660138654799	0,00099086250346241792	0,014723775672161747
1	1	0	0	0	0	2	38393,63	0,100000001	1,06563437	0,00027780751188389133	0,10001070409191642	0,000106574844	-0,026278793874664099	0,00098049713167785779	0,015001583184045638
1	1	0	0	0	0	2	38403,63	0,100000001	1,07556379	0,00027780733730975123	0,1000106412452261	0,000107567823	-0,026000986537354349	0,00097013176640689344	0,015279390521355386
1	1	0	0	0	0	2	38413,63	0,100000001	1,08480573	0,0002778072902804448	0,10001062431467581	0,000108492095	-0,025723179247073904	0,00095976640289065574	0,015557197811635834
1	1	0	0	0	0	2	38423,63	0,100000001	1,09402859	0,00027780690488715962	0,10001048557309342	0,00010941433	-0,025445372342186746	0,00094940105375395968	0,015835004716522992
1	1	0	0	0	0	2	38433,63	0,100000001	1,10286951	0,0002778069819100201	0,10001051330132314	0,000110298548	-0,025167565360276723	0,00093903570174343706	0,016112811698433014
1	1	0	0	0	0	2	38443,63	0,100000001	1,11150038	0,00027780714375360144	0,10001057156501232	0,000111161789	-0,024889758216523123	0,00092867034369431296	0,016390618842186614
1	1	0	0	0	0	2	38453,63	0,100000001	1,11978757	0,00027780704438024093	0,10001053579060259	0,000111990557	-0,024611951172142883	0,00091830498935294246	0,016668425886566854
1	1	0	0	0	0	2	38463,63	0,100000001	1,12803662	0,00027780722283447786	0,10001060003412776	0,000112815622	-0,024334143949308406	0,00090793962835320435	0,016946233109401334
1	1	0	0	0	0	2	38473,63	0,100000001	1,13580823	0,00027780722428527142	0,10001060055641347	0,000113592861	-0,024056336725023133	0,00089757426729933542	0,017224040333686605
1	1	0	0	0	0	2	38483,63	0,100000001	1,14361799	0,00027780689376137325	0,10001048156781034	0,000114373783	-0,02377852983126176	0,00088720891857775744	0,017501847227447978
1	1	0	0	0	0	2	38493,63	0,100000001	1,15110326	0,00027780688942968845	0,10001048000840381	0,000115122391	-0,023500722941832074	0,00087684357001780032	0,017779654116877667
1	1	0	0	0	0	2	38503,63	0,100000001	1,15860748	0,00027780688775744701	0,1000104794063969	0,000115872892	-0,023222916054074627	0,00086647822152023693	0,018057461004635114
1	1	0	0	0	0	2	38513,63	0,100000001	1,16580629	0,00027780700879833763	0,10001052298111744	0,000116592899	-0,022945109045276288	0,00085611286850647514	0,01833526801343345
1	1	0	0	0	0	2	38523,63	0,100000001	1,17306232	0,00027780711819521254	0,10001056236399234	0,000117318625	-0,022667301927081075	0,00084574751141096883	0,018613075131628662
1	1	0	0	0	0	2	38533,63	0,100000001	1,18033755	0,00027780694950785901	0,10001050163654517	0,000118046148	-0,022389494977573216	0,0008353821606094144	0,018890882081136522
1	1	0	0	0	0	2	38543,63	0,100000001	1,18749809	0,00027780662596391306	0,10001038516072483	0,000118762138	-0,022111688351609302	0,00082501682187971955	0,019168688707100438
1	1	0	0	0	0	2	38553,63	0,100000001	1,19456327	0,00027780705476096938	0,10001053952766482	0,000119468918	-0,021833881296848333	0,00081465146715103027	0,019446495761861405
1	1	0	0	0	0	2	38563,63	0,100000001	1,20172381	0,00027780693554547098	0,10001049661008549	0,000120184995	-0,021556074361302864	0,00080428611687043136	0,019724302697406874
1	1	0	0	0	0	2	38573,63	0,100000001	1,20878887	0,00027780703208140202	0,10001053136302059	0,000120891615	-0,021278267329221462	0,00079392076298794714	0,020002109729488275
1	1	0	0	0	0	2	38583,63	0,100000001	1,21593046	0,00027780686012696886	0,10001046945942477	0,000121605779	-0,021000460469094496	0,00078355541552131405	0,020279916589615245
1	1	0	0	0	0	2	38593,63	0,100000001	1,22303367	0,00027780694530324803	0,10001050012288522	0,000122316211	-0,020722653523791248	0,00077319006487663936	0,020557723534918493
1	1	0	0	0	0	2	38603,63	0,100000001	1,23017526	0,0002778069701364471	0,10001050906283688	0,000123030448	-0,020444846553654797	0,00076282471330540454	0,020835530505054941
1	1	0	0	0	0	2	38613,63	0,100000001	1,23748863	0,00027780735761920614	0,10001064855662986	0,000123762045	-0,02016703919603559	0,00075245934727666714	0,021113337862674147
1	1	0	0	0	0	2	38623,63	0,100000001	1,24466825	0,00027780681364238259	0,10001045272497376	0,000124479833	-0,01988923238239321	0,00074209400154443648	0,021391144676316528
1	1	0	0	0	0	2	38633,63	0,100000001	1,25200069	0,00027780681435101562	0,10001045298008163	0,000125213162	-0,019611425568042195	0,00073172865578576563	0,021668951490667542
1	1	0	0	0	0	2	38643,63	0,100000001	1,25933313	0,00027780672704180086	0,10001042154876438	0,000125946433	-0,019333618841000394	0,0007213633132847191	0,021946758217709344
1	1	0	0	0	0	2	38653,63	0,100000001	1,26660836	0,00027780671388821469	0,10001041681347336	0,000126674029	-0,019055812127112179	0,00071099797127445043	0,022224564931597558
1	1	0	0	0	0	2	38663,63	0,100000001	1,27409351	0,00027780655155248112	0,10001035837260939	0,000127422551	-0,018778005575559696	0,00070063263532114624	0,022502371483150042
1	1	0	0	0	0	2	38673,63	0,100000001	1,28154051	0,00027780638145779565	0,10001029713852275	0,000128167245	-0,018500199194101904	0,00069026730571430349	0,022780177864607837
1	1	0	0	0	0	2	38683,63	0,100000001	1,2889303	0,0002778061503275401	0,1000102139316309	0,000128906191	-0,018222393043774362	0,00067990198473124134	0,023057984014935376
1	1	0	0	0	0	2	38693,63	0,100000001	1,29662549	0,00027780660943893923	0,10001037921173426	0,000129676002	-0,017944586434335424	0,00066953664661811571	0,023335790624374314
1	1	0	0	0	0	2	38703,63	0,100000001	1,30403435	0,00027780645276357731	0,10001032280860408	0,000130416898	-0,017666779981571846	0,00065917131435075827	0,023613597077137894
1	1	0	0	0	0	2	38713,63	0,100000001	1,3116914	0,00027780668823669357	0,10001040757892579	0,000131182795	-0,017388973293335149	0,00064880597329758234	0,023891403765374589
1	1	0	0	0	0	2	38723,63	0,100000001	1,31931019	0,00027780666476446717	0,1000103991289243	0,000131944733	-0,017111166628570682	0,00063844063312018675	0,024169210430139056
1	1	0	0	0	0	2	38733,63	0,100000001	1,32689095	0,00027780673688525952	0,1000104250924095	0,000132702931	-0,016833359891685424	0,00062807529025186739	0,024447017167024317
1	1	0	0	0	0	2	38743,63	0,100000001	1,33458614	0,00027780615307970176	0,10001021492240909	0,000133472247	-0,016555553738605722	0,00061770996916611853	0,024724823320104016
1	1	0	0	0	0	2	38753,63	0,100000001	1,34220505	0,00027780656927658454	0,10001036475328661	0,000134234419	-0,016277747169329136	0,00060734463255150413	0,025002629889380602
1	1	0	0	0	0	2	38763,63	0,100000001	1,34999573	0,00027780674332380298	0,10001042741028512	0,000135013644	-0,015999940426005331	0,00059697928944295411	0,025280436632704406
1	1	0	0	0	0	2	38773,63	0,100000001	1,35771012	0,00027780675604318576	0,10001043198926294	0,000135785172	-0,015722133669962147	0,00058661394585982694	0,02555824338874759
1	1	0	0	0	0	2	38783,63	0,100000001	1,36532903	0,00027780653369426723	0,10001035194365242	0,000136547038	-0,015444327136267878	0,00057624861057283667	0,025836049922441859
1	1	0	0	0	0	2	38793,63	0,100000001	1,37210763	0,00027780665596615933	0,10001039596153349	0,000137225026	-0,015166520480301718	0,00056588327072371776	0,026113856578408016
1	1	0	0	0	0	2	38803,63	0,100000001	1,37466633	0,00027780649650303856	0,10001033855481013	0,000137480849	-0,014888713983798682	0,00055551793682438234	0,026391663074911056
1	1	0	0	0	0	2	38813,63	0,100000001	1,37283325	0,00027780678109327955	0,10001044100729666	0,000137297655	-0,014610907202705402	0,00054515259230660243	0,026669469856004336
1	1	0	0	0	0	2	38823,63	0,100000001	1,37090468	0,00027780677779474189	0,10001043981982312	0,000137104784	-0,014333100424910661	0,00053478724791189536	0,026947276633799075
1	1	0	0	0	0	2	38833,63	0,100000001	1,37008357	0,0002778066762706472	0,1000104032711491	0,000137022609	-0,014055293748640013	0,00052442190730518874	0,027225083310069722
1	1	0	0	0	0	2	38843,63	0,100000001	1,3702364	0,00027780681558408672	0,10001045342398723	0,000137037961	-0,013777486933055926	0,0005140565615005104	0,027502890125653808
1	1	0	0	0	0	2	38853,63	0,100000001	1,37119114	0,00027780658123766381	0,10001036905927514	0,000137133335	-0,013499680351818262	0,0005036912244396121	0,027780696706891472
1	1	0	0	0	0	2	38863,63	0,100000001	1,37294781	0,00027780638911285338	0,10001029989434352	0,000137308918	-0,013221873962705408	0,00049332589454714886	0,02805850309600433
1	1	0	0	0	0	2	38873,63	0,100000001	1,37512469	0,00027780632552463146	0,10001027700258366	0,0001375266	-0,012944067637180778	0,00048296056702724768	0,028336309421528957
1	1	0	0	0	0	2	38883,63	0,100000001	1,3782562	0,00027780641494029098	0,10001030919222102	0,00013783983	-0,012666261222240486	0,00047259523617112806	0,028614115836469251
1	1	0	0	0	0	2	38893,63	0,100000001	1,38199878	0,00027780665909333363	0,10001039708731622	0,000138214251	-0,012388454563147152	0,00046222989620533011	0,028891922495562586
1	1	0	0	0	0	2	38903,63	0,100000001	1,38675344	0,00027780696210554906	0,10001050617171357	0,000138689909	-0,012110647601041605	0,00045186454493373901	0,029169729457668134
1	1	0	0	0	0	2	38913,63	0,100000001	1,39280653	0,00027780706022265888	0,10001054149387306	0,000139295342	-0,011832840540818947	0,00044149919000126662	0,02944753651789079
1	1	0	0	0	0	2	38923,63	0,100000001	1,39964247	0,00027780689293932586	0,10001048127187325	0,000139978918	-0,011555033647879621	0,00043113384131036032	0,029725343410830118
1	1	0	0	0	0	2	38933,63	0,100000001	1,40752876	0,00027780657113260694	0,10001036542145469	0,000140767472	-0,011277227076747014	0,00042076850462649542	0,030003149981962726
1	1	0	0	0	0	2	38943,63	0,100000001	1,41629326	0,00027780675392846269	0,10001043122796264	0,000141644094	-0,01099942032281855	0,00041040316112227123	0,030280956735891187
1	1	0	0	0	0	2	38953,63	0,100000001	1,42563069	0,00027780715580739907	0,10001057590437946	0,000142578152	-0,010721613167011152	0,00040003780262340365	0,030558763891698592
1	1	0	0	0	0	2	38963,63	0,100000001	1,43569374	0,00027780683452222083	0,1000104602417155	0,000143584388	-0,010443806332488931	0,00038967245611211808	0,030836570726220813
1	1	0	0	0	0	2	38973,63	0,100000001	1,4464823	0,00027780663619397421	0,10001038884354685	0,000144663252	-0,010165999696294955	0,00037930711700072602	0,031114377362414784
1	1	0	0	0	0	2	38983,63	0,100000001	1,45851207	0,00027780657996733984	0,10001036860195851	0,000145866332	-0,009888193116327616	0,00036894177998722528	0,031392183942382118
1	1	0	0	0	0	2	38993,63	0,100000001	1,47285235	0,00027780699273861117	0,1000105171996159	0,000147300729	-0,0096103861235890061	0,00035857642757267341	0,031669990935120736
1	1	0	0	0	0	2	39003,63	0,100000001	1,49103069	0,00027780699611744944	0,1000105184159977	0,000149118758	-0,0093325791274715558	0,00034821107503205261	0,031947797931238182
1	1	0	0	0	0	2	39013,63	0,100000001	1,51995957	0,00027780686400168474	0,10001047085432248	0,000152011868	-0,0090547722634698714	0,00033784572742084858	0,032225604795239872
1	1	0	0	0	0	2	39023,63	0,100000001	1,60563838	0,00027780715997806854	0,10001057740582046	0,000160580821	-0,0087769651034918029	0,00032748036876636768	0,032503411955217939
1	1	0	0	0	0	2	39033,63	0,100000001	1,82333946	0,00027780728620539107	0,1000106228476565	0,000182353309	-0,0084991578172864128	0,00031711500540217574	0,032781219241423334
1	1	0	0	0	0	2	39043,63	0,100000001	2,06519556	0,0002778069837875664	0,10001051397723981	0,00020654127	-0,0082213508334988454	0,00030674965332159936	0,033059026225210899
1	1	0	0	0	0	2	39053,63	0,100000001	2,26835275	0,00027780729076762995	0,10001062449006248	0,000226859382	-0,0079435435427312154	0,00029638428978718419	0,033336833515978528
1	1	0	0	0	0	2	39063,63	0,100000001	2,44345307	0,00027780741534092365	0,10001066933644811	0,000244371389	-0,0076657361273902912	0,00028601892160477184	0,033614640931319456
1	1	0	0	0	0	2	39073,63	0,100000001	2,59445548	0,0002778071834279431	0,1000105858477753	0,000259473018	-0,0073879289439623475	0,00027565356207534461	0,033892448114747398
1	1	0	0	0	0	2	39083,63	0,100000001	2,72874999	0,00027780729444035229	0,1000106258122425	0,000272903999	-0,0071101216495219955	0,00026528819840389517	0,03417025540918775
1	1	0	0	0	0	2	39093,63	0,100000001	2,84805489	0,00027780744414486822	0,10001067970586814	0,0002848359	-0,0068323142053771277	0,00025492282914676896	0,034448062853332621
1	1	0	0	0	0	2	39103,63	0,100000001	2,95580745	0,00027780727203148931	0,10001061774505187	0,000295612117	-0,0065545069333456384	0,00024455746631142432	0,034725870125364115
1	1	0	0	0	0	2	39113,63	0,100000001	3,05366898	0,00027780726770601338	0,10001061618788053	0,000305399328	-0,006276699665639625	0,00023419210363746902	0,035003677393070131
1	1	0	0	0	0	2	39123,63	0,100000001	3,14274669	0,00027780715922555984	0,10001057713491734	0,000314307923	-0,0059988925064140659	0,00022382674501106528	0,035281484552295693
1	1	0	0	0	0	2	39133,63	0,100000001	3,22382355	0,00027780756165956461	0,10001072201115875	0,00032241692	-0,0057210849447545005	0,00021346137136930774	0,035559292113955251
1	1	0	0	0	0	2	39143,63	0,100000001	3,29577327	0,00027780730838121642	0,10001063083095358	0,000329612376	-0,0054432776363732845	0,00020309600717770592	0,035837099422336467
1	1	0	0	0	0	2	39153,63	0,100000001	3,35920644	0,00027780707001189395	0,10001054501799766	0,00033595608	-0,0051654705663613914	0,00019273065187998403	0,036114906492348365
1	1	0	0	0	0	2	39163,63	0,100000001	3,4157083	0,00027780741116859843	0,10001066783441106	0,000341607258	-0,004887663155192793	0,00018236528385324678	0,03639271390351696
1	1	0	0	0	0	2	39173,63	0,100000001	3,46682549	0,0002778076396907369	0,10001075010238075	0,000346719811	-0,0046098555155020563	0,00017199990730004128	0,036670521543207699
1	1	0	0	0	0	2	39183,63	0,100000001	3,51385617	0,00027780801847949619	0,10001088646633384	0,000351423863	-0,0043320474970225606	0,00016163451661371795	0,036948329561687194
1	1	0	0	0	0	2	39193,63	0,100000001	3,55777454	0,00027780825201215018	0,1000109705380891	0,000355816475	-0,0040542392450104109	0,00015126911721397725	0,037226137813699341
1	1	0	0	0	0	2	39203,63	0,100000001	3,59917212	0,00027780760639988714	0,10001073811767485	0,000359955855	-0,0037764316386105235	0,00014090374190289814	0,037503945420099232
1	1	0	0	0	0	2	39213,63	0,100000001	3,63946247	0,00027780736638853949	0,10001065171358986	0,000363985018	-0,003498624272221984	0,00013053837554696509	0,03778175278648777
1	1	0	0	0	0	2	39223,63	0,100000001	3,67967629	0,0002778070640145905	0,10001054285896842	0,000368006411	-0,0032208172082073933	0,00012017302047301061	0,038059559850502362
1	1	0	0	0	0	2	39233,63	0,100000001	3,71952748	0,00027780773357301952	0,10001078390000243	0,00037199285	-0,0029430094746343744	0,00010980764041693094	0,038337367584075386
1	1	0	0	0	0	2	39243,63	0,100000001	3,75901556	0,00027780694320052861	0,10001049936590622	0,000375941017	-0,0026652025314338454	9,9442289850711565E-005	0,03861517452727591
1	1	0	0	0	0	2	39253,63	0,100000001	3,79735827	0,00027780727190524342	0,10001061769960334	0,000379776146	-0,0023873952595286022	8,9076927020077338E-005	0,038892981799181158
1	1	0	0	0	0	2	39263,63	0,100000001	3,8341732	0,00027780782361742522	0,10001081631598842	0,000383458799	-0,002109587435911177	7,8711543604319795E-005	0,039170789622798579
1	1	0	0	0	0	2	39273,63	0,100000001	3,86923146	0,00027780736550109254	0,10001065139410894	0,000386964355	-0,0018317800704100845	6,8346177281498586E-005	0,039448596988299674
1	1	0	0	0	0	2	39283,63	0,100000001	3,90280032	0,00027780733799147936	0,10001064149064822	0,000390321569	-0,0015539727324186051	5,7980811985098048E-005	0,039726404326291155
1	1	0	0	0	0	2	39293,63	0,100000001	3,93501329	0,00027780738537303277	0,10001065854800744	0,000393543276	-0,0012761653470455722	4,7615444920828019E-005	0,040004211711664186
1	1	0	0	0	0	2	39303,63	0,100000001	3,96592808	0,0002778074643731945	0,1000106869880656	0,00039663518	-0,00099835788267237747	3,7250074908955757E-005	0,040282019176037382
1	1	0	0	0	0	2	39313,63	0,100000001	3,99588799	0,00027780764950977434	0,10001075363723421	0,000399631768	-0,00072055023316260314	2,6884697989388774E-005	0,040559826825547162
1	1	0	0	0	0	2	39323,63	0,100000001	4,02493143	0,0002778075612547497	0,10001072186542541	0,000402536301	-0,0004427426719078535	1,6519324362735427E-005	0,040837634386801907
1	1	0	0	0	0	2	39333,63	0,100000001	4,05365038	0,0002778074209474855	0,10001067135481038	0,000405408297	-0,000164935250960368	6,1539559711347507E-006	0,041115441807749389
1	1	0	0	0	0	2	39343,63	0,100000001	4,08189154	0,00027780764275872042	0,10001075120685482	0,000408233027	0,00011287239179835242	-4,2114206965413293E-006	0,041393249450508109
1	1	0	0	0	0	2	39353,63	0,100000001	4,10944557	0,00027780813090254861	0,10001092693863262	0,000410989451	0,00039068052270090106	-1,4576815577519955E-005	0,041671057581410662
1	1	0	0	0	0	2	39363,63	0,100000001	4,13608313	0,00027780785653036499	0,10001082816464672	0,000413653092	0,00066848837923126605	-2,4942200221303517E-005	0,041948865437941024
1	1	0	0	0	0	2	39373,63	0,100000001	4,16103983	0,00027780762871437606	0,10001074615089085	0,000416148687	0,00094629600794564211	-3,5307576364966221E-005	0,042226673066655405
1	1	0	0	0	0	2	39383,63	0,100000001	4,18445015	0,00027780725317862294	0,10001061095802	0,000418489421	0,001224103261124265	-4,5672938496885069E-005	0,042504480319834022
1	1	0	0	0	0	2	39391,10	0,100000001	4,20000076	0,00020765546374064352	0,100010658222064	0,000420044846	0,0014317587248649085	-5,3420843044788864E-005	0,042712135783574669