EC-Lab ASCII FILE
Nb header lines : 3                           
mode	ox/red	error	control changes	Ns changes	counter inc.	Ns	time/s	control/V/mA	Ewe/V	dq/mA.h	<I>/mA	P/W	(Q-Qo)/mA.h	x	Capacity/mA.h
1	0	0	1	1	0	1	21031,49	-0,100000001	4,18816185	0	0	0	0	0	0
1	0	0	1	0	0	1	21041,49	-0,100000001	3,78132582	-0,0002763601733859024	-0,099489663623465472	0,000376202835	-0,0002763601733859024	1,031136963923297E-005	0,0002763601733859024
1	0	0	1	0	0	1	21051,49	-0,100000001	3,44115019	-0,0002777334625832736	-0,099984047740504704	0,000344060129	-0,00055409363596917606	2,0673978544826822E-005	0,00055409363596917606
1	0	0	1	0	0	1	21061,49	-0,100000001	3,11802602	-0,00027773394794555174	-0,099984222470926963	0,000311753422	-0,00083182758391472781	3,1036605559939853E-005	0,00083182758391472781
1	0	0	1	0	0	1	21071,49	-0,100000001	2,82237959	-0,00027773426650257578	-0,099984337151456998	0,000282193767	-0,0011095618504173037	4,1399244460843757E-005	0,0011095618504173037
1	0	0	1	0	0	1	21081,49	-0,100000001	2,52848983	-0,00027773429439341027	-0,09998434719215753	0,000252809405	-0,0013872961448107139	5,1761884402392186E-005	0,0013872961448107139
1	0	0	1	0	0	1	21091,49	-0,100000001	2,2721982	-0,00027773402131348848	-0,099984248883384499	0,000227184035	-0,0016650301661242022	6,2124514154961574E-005	0,0016650301661242022
1	0	0	1	0	0	1	21101,49	-0,100000001	2,05963349	-0,00027773421003752282	-0,09998431682403767	0,00020593105	-0,0019427643761617251	7,2487150949078413E-005	0,0019427643761617251
1	0	0	1	0	0	1	21111,49	-0,100000001	1,87947309	-0,00027773419299473366	-0,09998431068863351	0,000187917816	-0,0022204985691564586	8,2849787107305894E-005	0,0022204985691564586
1	0	0	1	0	0	1	21121,49	-0,100000001	1,73058271	-0,00027773356278323462	-0,099984083812491098	0,000173030727	-0,0024982321319396931	9,3212399751495014E-005	0,0024982321319396931
1	0	0	1	0	0	1	21131,49	-0,100000001	1,61519217	-0,00027773362157328259	-0,099984104976908646	0,000161493546	-0,0027759657535129757	0,00010357501458921986	0,0027759657535129757
1	0	0	1	0	0	1	21141,49	-0,100000001	1,5342871	-0,00027773411653687555	-0,09998428316380425	0,000153404602	-0,0030536998700498509	0,00011393764789470186	0,0030536998700498509
1	0	0	1	0	0	1	21151,49	-0,100000001	1,49267936	-0,0002777339607377847	-0,099984227076130854	0,000149244399	-0,0033314338307876358	0,00012430027538711029	0,0033314338307876358
1	0	0	1	0	0	1	21161,49	-0,100000001	1,46915436	-0,00027773406277969475	-0,099984263811218944	0,000146892315	-0,0036091678935673306	0,00013466290668683958	0,0036091678935673306
1	0	0	1	0	0	1	21171,49	-0,100000001	1,45244634	-0,0002777337416898873	-0,099984148218886848	0,000145221609	-0,0038869016352572173	0,00014502552600627645	0,0038869016352572173
1	0	0	1	0	0	1	21181,49	-0,100000001	1,43894625	-0,00027773360347333878	-0,099984098460928794	0,000143871745	-0,0041646352387305562	0,00015538814016866806	0,0041646352387305562
1	0	0	1	0	0	1	21191,49	-0,100000001	1,42731738	-0,00027773368670998349	-0,099984128426121242	0,00014270909	-0,0044423689254405395	0,00016575075743673078	0,0044423689254405395
1	0	0	1	0	0	1	21201,49	-0,100000001	1,41692984	-0,00027773370904227098	-0,099984136465744832	0,000141670505	-0,0047201026344828102	0,00017611337553804118	0,0047201026344828102
1	0	0	1	0	0	1	21211,49	-0,100000001	1,40715325	-0,00027773401781130166	-0,099984247622597235	0,000140693155	-0,004997836652294112	0,0001864760051599393	0,004997836652294112
1	0	0	1	0	0	1	21221,49	-0,100000001	1,39835048	-0,00027773396639939811	-0,099984229114311718	0,000139812997	-0,005275570618693511	0,00019683863286359018	0,005275570618693511
1	0	0	1	0	0	1	21231,49	-0,100000001	1,38962412	-0,0002777338454859952	-0,099984185585486131	0,000138940435	-0,0055533044641795059	0,00020720125605579939	0,0055533044641795059
1	0	0	1	0	0	1	21241,49	-0,100000001	1,38127959	-0,00027773384101233552	-0,099984183974968653	0,000138106116	-0,0058310383051918413	0,00021756387908109034	0,0058310383051918413
1	0	0	1	0	0	1	21251,49	-0,100000001	1,37324071	-0,00027773385450657872	-0,099984188832896256	0,000137302355	-0,0061087721596984205	0,00022792650260986963	0,0061087721596984205
1	0	0	1	0	0	1	21261,49	-0,100000001	1,3652972	-0,00027773379906349712	-0,099984168873386637	0,000136508112	-0,0063865059587619174	0,00023828912406999306	0,0063865059587619174
1	0	0	1	0	0	1	21271,49	-0,100000001	1,35775471	-0,00027773406731254525	-0,099984265443045146	0,000135754104	-0,0066642400260744627	0,00024865175553884912	0,0066642400260744627
1	0	0	1	0	0	1	21281,49	-0,100000001	1,35005939	-0,00027773428662659395	-0,099984344396103629	0,000134984803	-0,0069419743127010573	0,0002590143951906072	0,0069419743127010573
1	0	0	1	0	0	1	21291,49	-0,100000001	1,34272695	-0,00027773459472010531	-0,099984455309769062	0,000134251823	-0,0072197089074211622	0,00026937704633774838	0,0072197089074211622
1	0	0	1	0	0	1	21301,49	-0,100000001	1,33522272	-0,0002777345398887992	-0,099984435570498637	0,000133501497	-0,0074974434473099622	0,0002797396954390599	0,0074974434473099622
1	0	0	1	0	0	1	21311,49	-0,100000001	1,32808125	-0,00027773408652883437	-0,099984272360909299	0,000132787231	-0,0077751775338387968	0,0002901023276249015	0,0077751775338387968
1	0	0	1	0	0	1	21321,49	-0,100000001	1,32170355	-0,00027773410411675773	-0,099984278692561779	0,00013214958	-0,0080529116379555546	0,00030046496046697222	0,0080529116379555546
1	0	0	1	0	0	1	21331,49	-0,100000001	1,31777	-0,0002777340953035487	-0,099984275519806502	0,000131756286	-0,0083306457332591027	0,00031082759298021018	0,0083306457332591027
1	0	0	1	0	0	1	21341,49	-0,100000001	1,31545949	-0,00027773384358858067	-0,099984184902416909	0,000131525143	-0,0086083795768476838	0,00032119021610162432	0,0086083795768476838
1	0	0	1	0	0	1	21351,49	-0,100000001	1,31356907	-0,00027773404951517779	-0,099984259035992768	0,00013133623	-0,0088861136263628621	0,00033155284690643667	0,0088861136263628621
1	0	0	1	0	0	1	21361,49	-0,100000001	1,31127775	-0,0002777342438420488	-0,099984328993667174	0,000131107226	-0,0091638478702049114	0,00034191548496184589	0,0091638478702049114
1	0	0	1	0	0	1	21371,49	-0,100000001	1,30852807	-0,00027773398716996112	-0,099984236591714496	0,000130832181	-0,0094415818573748723	0,0003522781134404743	0,0094415818573748723
1	0	0	1	0	0	1	21381,49	-0,100000001	1,30535829	-0,00027773412059495846	-0,099984284624714125	0,000130515313	-0,0097193159779698291	0,00036264074689736883	0,0097193159779698291
1	0	0	1	0	0	1	21391,49	-0,100000001	1,30165386	-0,00027773410382659898	-0,09998427858810464	0,000130144923	-0,0099970500817964275	0,00037300337972861331	0,0099970500817964275
1	0	0	1	0	0	1	21401,49	-0,100000001	1,29718566	-0,00027773407455906272	-0,099984268051791462	0,000129698165	-0,01027478415635549	0,00038336601146784666	0,01027478415635549
1	0	0	1	0	0	1	21411,49	-0,100000001	1,29208732	-0,00027773376851404707	-0,099984157875584486	0,000129188265	-0,010552517924869536	0,00039372863178812896	0,010552517924869536
1	0	0	1	0	0	1	21421,49	-0,100000001	1,28664529	-0,00027773364279088048	-0,099984112615243968	0,000128644082	-0,010830251567660416	0,00040409124741751091	0,010830251567660416
1	0	0	1	0	0	1	21431,49	-0,100000001	1,28076398	-0,00027773365345266128	-0,099984116453485107	0,000128056054	-0,011107985221113077	0,00041445386344469818	0,011107985221113077
1	0	0	1	0	0	1	21441,49	-0,100000001	1,27469182	-0,00027773375388855738	-0,099984152610408128	0,000127448977	-0,011385718975001635	0,0004248164832192839	0,011385718975001635
1	0	0	1	0	0	1	21451,49	-0,100000001	1,26839054	-0,00027773395029248464	-0,099984223315822797	0,000126819039	-0,011663452925294118	0,0004351791103219641	0,011663452925294118
1	0	0	1	0	0	1	21461,49	-0,100000001	1,26210833	-0,00027773386586747235	-0,09998419292281801	0,000126190876	-0,01194118679116159	0,0004455417342746336	0,01194118679116159
1	0	0	1	0	0	1	21471,49	-0,100000001	1,25555873	-0,00027773411774428358	-0,099984283598471155	0,000125536142	-0,012218920908905874	0,00045590436762516557	0,012218920908905874
1	0	0	1	0	0	1	21481,49	-0,100000001	1,24910462	-0,00027773376700489053	-0,099984157332288128	0,000124890677	-0,012496654675910763	0,00046626698788913926	0,012496654675910763
1	0	0	1	0	0	1	21491,49	-0,100000001	1,24245965	-0,00027773363610150086	-0,099984110207067277	0,000124226222	-0,012774388312012266	0,00047662960326893146	0,012774388312012266
1	0	0	1	0	0	1	21501,49	-0,100000001	1,23591006	-0,00027773363572069344	-0,099984110069976614	0,000123571372	-0,013052121947732958	0,0004869922186345152	0,013052121947732958
1	0	0	1	0	0	1	21511,49	-0,100000001	1,22924602	-0,00027773403514383568	-0,099984253862309542	0,000122905243	-0,013329855982876795	0,00049735484890311347	0,013329855982876795
1	0	0	1	0	0	1	21521,49	-0,100000001	1,22252452	-0,00027773418786873421	-0,09998430884327369	0,000122233265	-0,013607590170745528	0,00050771748487008294	0,013607590170745528
1	0	0	1	0	0	1	21531,49	-0,100000001	1,21582222	-0,00027773422214264675	-0,099984321181882355	0,000121563156	-0,013885324392888174	0,0005180801221158583	0,013885324392888174
1	0	0	1	0	0	1	21541,49	-0,100000001	1,20885265	-0,00027773405632128317	-0,099984261486190733	0,000120866236	-0,014163058449209456	0,00052844275317461562	0,014163058449209456
1	0	0	1	0	0	1	21551,49	-0,100000001	1,20211208	-0,00027773405602367389	-0,099984261379051392	0,000120192286	-0,014440792505233133	0,00053880538422226867	0,014440792505233133
1	0	0	1	0	0	1	21561,49	-0,100000001	1,19529521	-0,00027773423620396189	-0,099984326243955866	0,000119510783	-0,014718526741437094	0,0005491680219926905	0,014718526741437094
1	0	0	1	0	0	1	21571,49	-0,100000001	1,18805826	-0,00027773411675045888	-0,099984283240694246	0,000118787153	-0,014996260858187552	0,00055953065530614163	0,014996260858187552
1	0	0	1	0	0	1	21581,49	-0,100000001	1,18105042	-0,00027773399038943978	-0,099984237750726835	0,000118086427	-0,015273994848576992	0,00056989328390489312	0,015273994848576992
1	0	0	1	0	0	1	21591,49	-0,100000001	1,17373705	-0,00027773418027783434	-0,099984306110549709	0,000117355281	-0,015551729028854826	0,0005802559195886359	0,015551729028854826
1	0	0	1	0	0	1	21601,49	-0,100000001	1,16648102	-0,00027773420129385261	-0,099984313676316352	0,000116629803	-0,015829463230148675	0,00059061855605651469	0,015829463230148675
1	0	0	1	0	0	1	21611,49	-0,100000001	1,15903401	-0,00027773408479616045	-0,099984271737146688	0,000115885174	-0,016107197314944838	0,00060098118817770803	0,016107197314944838
1	0	0	1	0	0	1	21621,49	-0,100000001	1,15135789	-0,00027773422447592019	-0,099984322021860787	0,000115117735	-0,016384931539420755	0,0006113438255105408	0,016384931539420755
1	0	0	1	0	0	1	21631,49	-0,100000001	1,14360535	-0,00027773397123482493	-0,099984230855065421	0,000114342503	-0,016662665510655581	0,00062170645339460787	0,016662665510655581
1	0	0	1	0	0	1	21641,49	-0,100000001	1,13558543	-0,00027773365129116509	-0,09998411567534647	0,000113540504	-0,016940399161946746	0,00063206906934114688	0,016940399161946746
1	0	0	1	0	0	1	21651,49	-0,100000001	1,12748921	-0,00027773322493044867	-0,099983962185486707	0,000112730835	-0,017218132386877194	0,00064243166937959437	0,017218132386877194
1	0	0	1	0	0	1	21661,49	-0,100000001	1,1191256	-0,00027773319705285962	-0,099983952149554509	0,000111894602	-0,017495865583930054	0,00065279426837789133	0,017495865583930054
1	0	0	1	0	0	1	21671,49	-0,100000001	1,11051381	-0,00027773381004109981	-0,099984172825323648	0,000111033805	-0,017773599393971152	0,00066315689024760384	0,017773599393971152
1	0	0	1	0	0	1	21681,49	-0,100000001	1,10197842	-0,00027773400739745962	-0,099984243873614054	0,000110180481	-0,018051333401368611	0,00067351951948094746	0,018051333401368611
1	0	0	1	0	0	1	21691,49	-0,100000001	1,09300387	-0,00027773402373409933	-0,099984249754804429	0,000109283174	-0,01832906742510271	0,00068388214932383322	0,01832906742510271
1	0	0	1	0	0	1	21701,49	-0,100000001	1,08389556	-0,00027773419552337795	-0,099984311598945472	0,000108372551	-0,018606801620626086	0,00069424478557640768	0,018606801620626086
1	0	0	1	0	0	1	21711,49	-0,100000001	1,07457721	-0,00027773404548151626	-0,099984257583874598	0,000107440806	-0,018884535666107603	0,00070460741623071872	0,018884535666107603
1	0	0	1	0	0	1	21721,49	-0,100000001	1,06506801	-0,00027773416496896083	-0,099984300599355162	0,000106490079	-0,019162269831076563	0,00071497005134326682	0,019162269831076563
1	0	0	1	0	0	1	21731,49	-0,100000001	1,05540597	-0,00027773391195593606	-0,099984209514665152	0,000105523934	-0,019440003743032502	0,00072533267701555891	0,019440003743032502
1	0	0	1	0	0	1	21741,49	-0,100000001	1,0456866	-0,00027773393105011846	-0,099984216388570893	0,000104552157	-0,019717737674082618	0,0007356953034002807	0,019717737674082618
1	0	0	1	0	0	1	21751,49	-0,100000001	1,03564274	-0,00027773380962717862	-0,099984172676312013	0,000103547885	-0,019995471483709798	0,00074605792525454925	0,019995471483709798
1	0	0	1	0	0	1	21761,49	-0,100000001	1,02605712	-0,00027773384759864877	-0,099984186346041446	0,000102589489	-0,020273205331308448	0,00075642054852558451	0,020273205331308448
1	0	0	1	0	0	1	21771,49	-0,100000001	1,01635683	-0,00027773377709297674	-0,099984160963999206	0,000101619582	-0,020550939108401424	0,00076678316916595814	0,020550939108401424
1	0	0	1	0	0	1	21781,49	-0,100000001	1,00703859	-0,0002777340878426201	-0,099984272833872166	0,000100688019	-0,020828673196244045	0,00077714580140081894	0,020828673196244045
1	0	0	1	0	0	1	21791,49	-0,100000001	0,998312116	-0,00027773388917495805	-0,099984201313512973	9,98154428E-005	-0,021106407085419002	0,00078750842622312205	0,021106407085419002
1	0	0	1	0	0	1	21801,49	-0,100000001	0,990177691	-0,00027773518059692451	-0,099984666225426509	9,90025874E-005	-0,021384142266015926	0,0007978710992301152	0,021384142266015926
1	0	0	1	0	0	1	21811,49	-0,100000001	0,983074427	-0,00027773514112540416	-0,099984652015679027	9,8292352E-005	-0,021661877407141331	0,00080823377076437274	0,021661877407141331
1	0	0	1	0	0	1	21821,49	-0,100000001	0,97646755	-0,00027773525430717405	-0,099984692761116685	9,76318115E-005	-0,021939612661448506	0,00081859644652159424	0,021939612661448506
1	0	0	1	0	0	1	21831,49	-0,100000001	0,970739067	-0,00027773556281584832	-0,099984803824240755	9,70591573E-005	-0,022217348224264352	0,00082895913378968922	0,022217348224264352
1	0	0	1	0	0	1	21841,49	-0,100000001	0,965659857	-0,00027773582807762755	-0,099984899318482432	9,65514046E-005	-0,022495084052341981	0,00083932183095505792	0,022495084052341981
1	0	0	1	0	0	1	21851,49	-0,100000001	0,961287141	-0,0002777358941386143	-0,099984923100437965	9,61142214E-005	-0,022772819946480595	0,00084968453058525069	0,022772819946480595
1	0	0	1	0	0	1	21861,49	-0,100000001	0,957162619	-0,00027773541796579955	-0,099984751678222566	9,57016673E-005	-0,023050555364446394	0,00086004721244879565	0,023050555364446394
1	0	0	1	0	0	1	21871,49	-0,100000001	0,953496397	-0,0002777355092519687	-0,099984784541243866	9,53351337E-005	-0,023328290873698362	0,00087040989771835034	0,023328290873698362
1	0	0	1	0	0	1	21881,49	-0,100000001	0,950173855	-0,00027773561141019062	-0,099984821318204198	9,50029644E-005	-0,023606026485108554	0,00088077258679956557	0,023606026485108554
1	0	0	1	0	0	1	21891,49	-0,100000001	0,94746238	-0,00027773567899606291	-0,099984845649118528	9,47318767E-005	-0,023883762164104614	0,00089113527840250048	0,023883762164104614
1	0	0	1	0	0	1	21901,49	-0,100000001	0,944808185	-0,00027773569926950666	-0,099984852947558349	9,4466508E-005	-0,024161497863374122	0,00090149797076186496	0,024161497863374122
1	0	0	1	0	0	1	21911,49	-0,100000001	0,942459524	-0,00027773578279341261	-0,099984883016164864	9,42317056E-005	-0,024439233646167533	0,00091186066623761869	0,024439233646167533
1	0	0	1	0	0	1	21921,49	-0,100000001	0,940263629	-0,00027773550788188973	-0,099984784048015437	9,4012059E-005	-0,024716969154049424	0,00092222335145605389	0,024716969154049424
1	0	0	1	0	0	1	21931,49	-0,100000001	0,938354135	-0,00027773551428980294	-0,099984786354864218	9,38211379E-005	-0,024994704668339229	0,00093258603691357696	0,024994704668339229
1	0	0	1	0	0	1	21941,49	-0,100000001	0,936482847	-0,00027773545826599002	-0,099984766186291315	9,36340221E-005	-0,025272440126605216	0,00094294872028077606	0,025272440126605216
1	0	0	1	0	0	1	21951,49	-0,100000001	0,934859753	-0,00027773540983224912	-0,099984748750144384	9,34717173E-005	-0,025550175536437466	0,00095331140184084723	0,025550175536437466
1	0	0	1	0	0	1	21961,49	-0,100000001	0,933141232	-0,00027773550199468928	-0,099984781928623245	9,32999246E-005	-0,025827911038432157	0,00096367408683962317	0,025827911038432157
1	0	0	1	0	0	1	21971,49	-0,100000001	0,93147999	-0,00027773547732664477	-0,099984773048127117	9,31338145E-005	-0,0261056465157588	0,00097403677091800102	0,0261056465157588
1	0	0	1	0	0	1	21981,49	-0,100000001	0,929895103	-0,00027773558566512333	-0,099984812049979866	9,29753878E-005	-0,026383382101423923	0,00098439945903863322	0,026383382101423923
1	0	0	1	0	0	1	21991,49	-0,100000001	0,928291142	-0,00027773578925306598	-0,099984885341640115	9,28150839E-005	-0,026661117890676989	0,00099476215475540531	0,026661117890676989
1	0	0	1	0	0	1	22001,49	-0,100000001	0,926610768	-0,00027773584647849203	-0,099984905942793741	9,26470893E-005	-0,026938853737155482	0,0010051248526073347	0,026938853737155482
1	0	0	1	0	0	1	22011,49	-0,100000001	0,924892247	-0,0002777363563825687	-0,099985089508263552	9,24754349E-005	-0,027216590093538051	0,0010154875694844712	0,027216590093538051
1	0	0	1	0	0	1	22021,49	-0,100000001	0,923040032	-0,0002777360794817408	-0,099984989823964301	9,22901454E-005	-0,027494326173019792	0,0010258502760300654	0,027494326173019792
1	0	0	1	0	0	1	22031,49	-0,100000001	0,921206892	-0,0002777359002232552	-0,099984925290908698	9,21068058E-005	-0,027772062073243046	0,0010362129758872843	0,027772062073243046
1	0	0	1	0	0	1	22041,49	-0,100000001	0,919411957	-0,00027773611121541926	-0,099985001248088678	9,19274025E-005	-0,028049798184458467	0,0010465756836169046	0,028049798184458467
1	0	0	1	0	0	1	22051,49	-0,100000001	0,917426109	-0,00027773592982317011	-0,099984935946878195	9,17287907E-005	-0,028327534114281638	0,0010569383845785365	0,028327534114281638
1	0	0	1	0	0	1	22061,49	-0,100000001	0,915459335	-0,00027773592585656378	-0,099984934518899904	9,15321434E-005	-0,028605270040138202	0,0010673010853921685	0,028605270040138202
1	0	0	1	0	0	1	22071,49	-0,100000001	0,913588047	-0,00027773591500934627	-0,099984930613901555	9,13450349E-005	-0,028883005955147546	0,0010776637858010765	0,028883005955147546
1	0	0	1	0	0	1	22081,49	-0,100000001	0,911315739	-0,00027773539774616563	-0,099984744399154278	9,11176685E-005	-0,029160741352893715	0,0010880264669101997	0,029160741352893715
1	0	0	1	0	0	1	22091,49	-0,100000001	0,909196198	-0,00027773548115500147	-0,099984774426335539	9,09057781E-005	-0,029438476834048717	0,0010983891511314187	0,029438476834048717
1	0	0	1	0	0	1	22101,49	-0,100000001	0,90709579	-0,00027773554053902627	-0,09998479580458473	9,06957866E-005	-0,029716212374587744	0,0011087518375683357	0,029716212374587744
1	0	0	1	0	0	1	22111,49	-0,100000001	0,904957116	-0,00027773534539714458	-0,099984725553506458	9,0481888E-005	-0,02999394771998489	0,0011191145167242466	0,02999394771998489
1	0	0	1	0	0	1	22121,49	-0,100000001	0,902703941	-0,00027773557496112253	-0,099984808196539533	9,02566826E-005	-0,03027168329494601	0,0011294772044454981	0,03027168329494601
1	0	0	1	0	0	1	22131,49	-0,100000001	0,900565326	-0,00027773540221154694	-0,099984746006691558	9,00427985E-005	-0,030549418697157562	0,0011398398857212306	0,030549418697157562
1	0	0	1	0	0	1	22141,49	-0,100000001	0,898216665	-0,00027773567252564762	-0,099984843319768973	8,98080543E-005	-0,030827154369683206	0,0011502025770827459	0,030827154369683206
1	0	0	1	0	0	1	22151,49	-0,100000001	0,89596343	-0,00027773537346389558	-0,099984735657536947	8,9582667E-005	-0,031104889743147104	0,0011605652572858646	0,031104889743147104
1	0	0	1	0	0	1	22161,49	-0,100000001	0,893748403	-0,00027773533635007011	-0,099984722296559616	8,93611868E-005	-0,031382625079497171	0,0011709279361042171	0,031382625079497171
1	0	0	1	0	0	1	22171,49	-0,100000001	0,891457021	-0,00027773569089298445	-0,09998484993201033	8,91321979E-005	-0,03166036077039015	0,0011812906281510422	0,03166036077039015
1	0	0	1	0	0	1	22181,49	-0,100000001	0,889089286	-0,00027773554115535482	-0,099984796026463002	8,88954091E-005	-0,03193809631154551	0,001191653314610955	0,03193809631154551
1	0	0	1	0	0	1	22191,49	-0,100000001	0,886931539	-0,00027773547695039046	-0,099984772912675546	8,86796479E-005	-0,032215831788495904	0,0012020159986752944	0,032215831788495904
1	0	0	1	0	0	1	22201,49	-0,100000001	0,884525597	-0,00027773534538596867	-0,099984725549483136	8,84390465E-005	-0,032493567133881869	0,0012123786778307886	0,032493567133881869
1	0	0	1	0	0	1	22211,49	-0,100000001	0,882043242	-0,00027773555366984672	-0,099984800531680141	8,81909145E-005	-0,032771302687551718	0,0012227413647576338	0,032771302687551718
1	0	0	1	0	0	1	22221,49	-0,100000001	0,879732788	-0,00027773556971011891	-0,099984806306178202	8,79599102E-005	-0,033049038257261837	0,0012331040522829635	0,033049038257261837
1	0	0	1	0	0	1	22231,49	-0,100000001	0,8774032	-0,00027773614086873005	-0,099985011923280704	8,77271668E-005	-0,033326774398130566	0,0012434667611189885	0,033326774398130566
1	0	0	1	0	0	1	22241,49	-0,100000001	0,874978125	-0,00027773604173006282	-0,099984976233360077	8,74846664E-005	-0,033604510439860634	0,001253829466256017	0,033604510439860634
1	0	0	1	0	0	1	22251,49	-0,100000001	0,872591257	-0,00027773581717866989	-0,099984895394857638	8,72459423E-005	-0,033882246257039302	0,001264192163014731	0,033882246257039302
1	0	0	1	0	0	1	22261,49	-0,100000001	0,870204389	-0,00027773578987022243	-0,099984885563816435	8,70072836E-005	-0,034159982046909523	0,0012745548587545298	0,034159982046909523
1	0	0	1	0	0	1	22271,49	-0,100000001	0,867760241	-0,00027773577424759667	-0,099984879939671091	8,6762906E-005	-0,03443771782115712	0,0012849175539114275	0,03443771782115712
1	0	0	1	0	0	1	22281,49	-0,100000001	0,865297019	-0,00027773605336373046	-0,099984980421480474	8,65167021E-005	-0,034715453874520851	0,0012952802594825237	0,034715453874520851
1	0	0	1	0	0	1	22291,49	-0,100000001	0,862929225	-0,0002777359821514951	-0,09998495478507543	8,62799425E-005	-0,034993189856672346	0,0013056429623965955	0,034993189856672346
1	0	0	1	0	0	1	22301,49	-0,100000001	0,860466003	-0,00027773579409304592	-0,099984887084032896	8,60335931E-005	-0,035270925650765389	0,0013160056582939536	0,035270925650765389
1	0	0	1	0	0	1	22311,49	-0,100000001	0,857964575	-0,00027773584569700893	-0,099984905661459814	8,57835039E-005	-0,035548661496462394	0,0013263683561167248	0,035548661496462394
1	0	0	1	0	0	1	22321,49	-0,100000001	0,855520427	-0,00027773579703519744	-0,09998488814320745	8,55391118E-005	-0,035826397293497587	0,0013367310521238584	0,035826397293497587
1	0	0	1	0	0	1	22331,49	-0,100000001	0,852961719	-0,00027773600819913878	-0,099984964162227277	8,52833473E-005	-0,03610413330169673	0,001347093756009803	0,03610413330169673
1	0	0	1	0	0	1	22341,49	-0,100000001	0,850422084	-0,00027773569902032614	-0,099984852857853376	8,50293291E-005	-0,036381869000717056	0,0013574564483598702	0,036381869000717056
1	0	0	1	0	0	1	22351,49	-0,100000001	0,84805429	-0,00027773601547090544	-0,099984966780063283	8,47926785E-005	-0,036659605016187962	0,0013678191525171338	0,036659605016187962
1	0	0	1	0	0	1	22361,49	-0,100000001	0,845552862	-0,00027773590483557846	-0,099984926951345101	8,45425384E-005	-0,036937340921023533	0,0013781818525464448	0,036937340921023533
1	0	0	1	0	0	1	22371,49	-0,100000001	0,843070567	-0,00027773607261354723	-0,099984987351414592	8,42943991E-005	-0,037215076993637082	0,0013885445588357773	0,037215076993637082
1	0	0	1	0	0	1	22381,49	-0,100000001	0,840416372	-0,00027773627951575651	-0,099985061836210829	8,40290813E-005	-0,037492813273152838	0,0013989072728449096	0,037492813273152838
1	0	0	1	0	0	1	22391,49	-0,100000001	0,837819457	-0,00027773607205144234	-0,099984987149056832	8,3769366E-005	-0,037770549345204282	0,0014092699791132693	0,037770549345204282
1	0	0	1	0	0	1	22401,49	-0,100000001	0,835279822	-0,00027773588046679894	-0,099984918178584371	8,35153842E-005	-0,038048285225671078	0,0014196326782333483	0,038048285225671078
1	0	0	1	0	0	1	22411,49	-0,100000001	0,832759321	-0,00027773591343644592	-0,099984930047657434	8,32633814E-005	-0,038326021139107526	0,0014299953785835694	0,038326021139107526
1	0	0	1	0	0	1	22421,49	-0,100000001	0,830181479	-0,00027773617575524579	-0,099985024482426522	8,30057179E-005	-0,038603757314862771	0,0014403580887212573	0,038603757314862771
1	0	0	1	0	0	1	22431,49	-0,100000001	0,827660978	-0,00027773669440423446	-0,099985211196064717	8,27538606E-005	-0,038881494009267008	0,0014507208182104365	0,038881494009267008
1	0	0	1	0	0	1	22441,49	-0,100000001	0,82504493	-0,00027773662729188803	-0,099985187035619686	8,24922681E-005	-0,039159230636558893	0,0014610835451955635	0,039159230636558893
1	0	0	1	0	0	1	22451,49	-0,100000001	0,822562635	-0,00027773639970314173	-0,099985105103670042	8,22440124E-005	-0,039436967036262029	0,0014714462636890486	0,039436967036262029
1	0	0	1	0	0	1	22461,49	-0,100000001	0,819870234	-0,00027773632870490352	-0,099985079544303962	8,19747875E-005	-0,039714703364966938	0,0014818089795334941	0,039714703364966938
1	0	0	1	0	0	1	22471,49	-0,100000001	0,817349732	-0,00027773648416540694	-0,099985135510085875	8,17228211E-005	-0,039992439849132346	0,0014921717011783802	0,039992439849132346
1	0	0	1	0	0	1	22481,49	-0,100000001	0,814733684	-0,00027773656482994557	-0,099985164549320128	8,14612795E-005	-0,040270176413962291	0,0015025344258329683	0,040270176413962291
1	0	0	1	0	0	1	22491,49	-0,100000001	0,812136829	-0,00027773621840319699	-0,099985039835689139	8,12015351E-005	-0,040547912632365491	0,0015128971375619088	0,040547912632365491
1	0	0	1	0	0	1	22501,49	-0,100000001	0,809558988	-0,00027773636249121696	-0,099985091707376947	8,09438279E-005	-0,04082564899485671	0,001523259854666967	0,04082564899485671
1	0	0	1	0	0	1	22511,49	-0,100000001	0,806866586	-0,00027773627971899178	-0,099985061909375539	8,06746029E-005	-0,041103385274575699	0,0015336225686836819	0,041103385274575699
1	0	0	1	0	0	1	22521,49	-0,100000001	0,804212391	-0,00027773640547444422	-0,099985107181338944	8,04092633E-005	-0,04138112168005015	0,0015439852873925024	0,04138112168005015
1	0	0	1	0	0	1	22531,49	-0,100000001	0,801672816	-0,00027773602479447923	-0,099984970136549901	8,01552305E-005	-0,041658857704844627	0,0015543479918976413	0,041658857704844627
1	0	0	1	0	0	1	22537,36	-0,100000001	0,800107002	-0,00016289223468345075	-0,099985004597037274	7,99987029E-005	-0,041821749939528077	0,0015604257201846198	0,041821749939528077
1	1	0	0	1	0	2	22537,36	0,100000001	0,811962843	5,488565812508265E-009	0,032931393310892333	2,67390678E-005	-0,041821744450962266	0,0015604255153988499	5,488565812508265E-009
1	1	0	0	0	0	2	22547,36	0,100000001	0,833440304	0,00027780796119198205	0,10001086723996445	8,33530867E-005	-0,041543936489770285	0,0015500601268500006	0,00027781344975779456
1	1	0	0	0	0	2	22557,36	0,100000001	0,839550674	0,00027780824507855712	0,1000109694391327	8,39642744E-005	-0,041266128244691725	0,0015396947277089616	0,00055562169483635174
1	1	0	0	0	0	2	22567,36	0,100000001	0,844572663	0,00027780895969395837	0,10001122670068029	8,44667447E-005	-0,040988319284997766	0,0015293293019046608	0,00083343065453031002
1	1	0	0	0	0	2	22577,36	0,100000001	0,84923178	0,0002778089744452801	0,10001123201115616	8,49327189E-005	-0,040710510310552486	0,001518963875549969	0,0011112396289755901
1	1	0	0	0	0	2	22587,36	0,100000001	0,853680909	0,00027780944032677347	0,10001139972849582	8,53778256E-005	-0,040432700870225715	0,0015085984318126122	0,0013890490693023637
1	1	0	0	0	0	2	22597,36	0,100000001	0,857843578	0,00027780866114629638	0,10001111922352067	8,5793894E-005	-0,040154892209079418	0,0014982330171475264	0,0016668577304486598
1	1	0	0	0	0	2	22607,36	0,100000001	0,861891747	0,00027780850064754483	0,10001106144396942	8,61987064E-005	-0,039877083708431878	0,0014878676084708646	0,0019446662310962051
1	1	0	0	0	0	2	22617,36	0,100000001	0,865825295	0,0002778085085128745	0,10001106427548811	8,65921102E-005	-0,039599275199919002	0,0014775021995007373	0,0022224747396090797
1	1	0	0	0	0	2	22627,36	0,100000001	0,869758844	0,00027780847033071853	0,10001105052991179	8,69854994E-005	-0,039321466729588288	0,0014671367919552371	0,0025002832099397981
1	1	0	0	0	0	2	22637,36	0,100000001	0,87350142	0,00027780852893284624	0,10001107162667805	8,7359811E-005	-0,039043658200655437	0,0014567713822232131	0,0027780917388726445
1	1	0	0	0	0	2	22647,36	0,100000001	0,877167642	0,00027780904128899178	0,10001125607489267	8,77266357E-005	-0,038765849159366451	0,0014464059533744922	0,0030559007801616358
1	1	0	0	0	0	2	22657,36	0,100000001	0,880986631	0,00027780892403879101	0,10001121386481987	8,81085434E-005	-0,038488040235327654	0,0014360405289005341	0,0033337097042004269
1	1	0	0	0	0	2	22667,36	0,100000001	0,884576499	0,00027780882346671488	0,10001117765887203	8,84675392E-005	-0,038210231411860941	0,001425675108179055	0,0036115185276671418
1	1	0	0	0	0	2	22677,36	0,100000001	0,888204515	0,00027780886108055712	0,10001119119985539	8,88303912E-005	-0,037932422550780378	0,0014153096860541533	0,0038893273887476992
1	1	0	0	0	0	2	22687,36	0,100000001	0,891813457	0,00027780873258163533	0,10001114494024299	8,9191286E-005	-0,037654613818198739	0,0014049442687237187	0,0041671361213293344
1	1	0	0	0	0	2	22697,36	0,100000001	0,895326912	0,00027780891126808192	0,10001120926736456	8,95427293E-005	-0,037376804906930662	0,0013945788447262531	0,0044449450325974163
1	1	0	0	0	0	2	22707,36	0,100000001	0,898706734	0,00027780907266876765	0,10001126737161213	8,98807994E-005	-0,037098995834261894	0,0013842134147067106	0,0047227541052661837
1	1	0	0	0	0	2	22717,36	0,100000001	0,902239263	0,00027780900028430752	0,10001124131320618	9,02340689E-005	-0,036821186833977587	0,0013738479873879296	0,0050005631055504915
1	1	0	0	0	0	2	22727,36	0,100000001	0,905695438	0,00027780917696240877	0,10001130491732338	9,0579786E-005	-0,036543377657015181	0,0013634825534770512	0,0052783722825128998
1	1	0	0	0	0	2	22737,36	0,100000001	0,909113407	0,00027780902535799475	0,10001125033973366	9,09215669E-005	-0,036265568631657184	0,0013531171252227371	0,0055561813078708947
1	1	0	0	0	0	2	22747,36	0,100000001	0,912321389	0,00027780868391278714	0,10001112741945744	9,12422911E-005	-0,035987759947744397	0,001342751709708203	0,0058339899917836826
1	1	0	0	0	0	2	22757,36	0,100000001	0,915643871	0,00027780837968985242	0,10001101789919962	9,15744749E-005	-0,035709951568054547	0,0013323863055446354	0,0061117983714735347
1	1	0	0	0	0	2	22767,36	0,100000001	0,919023693	0,00027780783488146138	0,10001082176817645	9,19123122E-005	-0,035432143733173082	0,0013220209217086016	0,0063896062063549965
1	1	0	0	0	0	2	22777,36	0,100000001	0,922250748	0,0002778079899532927	0,10001087759403642	9,22351101E-005	-0,035154335743219795	0,0013116555320866294	0,0066674141963082893
1	1	0	0	0	0	2	22787,36	0,100000001	0,925420463	0,0002778080611311727	0,10001090321807354	9,25521381E-005	-0,034876527682088621	0,0013012901398089144	0,0069452222574394624
1	1	0	0	0	0	2	22797,36	0,100000001	0,928609312	0,00027780826031954755	0,10001097492588933	9,28711233E-005	-0,034598719421769069	0,0012909247400992136	0,0072230305177590093
1	1	0	0	0	0	2	22807,36	0,100000001	0,931950927	0,00027780817471072077	0,10001094410671133	9,32052935E-005	-0,034320911247058349	0,0012805593435836933	0,0075008386924697306
1	1	0	0	0	0	2	22817,36	0,100000001	0,935063422	0,0002778085412681103	0,10001107606737315	9,35166972E-005	-0,03404310270579024	0,0012701939333914237	0,0077786472337378406
1	1	0	0	0	0	2	22827,36	0,100000001	0,938061297	0,00027780826622537443	0,10001097705198704	9,38164303E-005	-0,033765294439564864	0,0012598285334613686	0,0080564554999632154
1	1	0	0	0	0	2	22837,36	0,100000001	0,941307425	0,00027780806588340138	0,10001090492887587	9,41410108E-005	-0,033487486373681466	0,0012494631410063416	0,0083342635658466176
1	1	0	0	0	0	2	22847,36	0,100000001	0,944438994	0,00027780806786566973	0,10001090564249251	9,44541971E-005	-0,033209678305815795	0,0012390977484773539	0,0086120716337122867
1	1	0	0	0	0	2	22857,36	0,100000001	0,947494209	0,00027780838463414045	0,10001101967914333	9,47598601E-005	-0,032931869921181651	0,0012287323441293085	0,0088898800183464256
1	1	0	0	0	0	2	22867,36	0,100000001	0,950453877	0,0002778081789145039	0,10001094562007328	9,50557878E-005	-0,032654061742267149	0,001218366947456939	0,0091676881972609306
1	1	0	0	0	0	2	22877,36	0,100000001	0,953394532	0,00027780828473096093	0,10001098371399826	9,53499257E-005	-0,032376253457536192	0,0012080015468364157	0,0094454964819918899
1	1	0	0	0	0	2	22887,36	0,100000001	0,956468821	0,00027780856256766448	0,10001108373521275	9,56574804E-005	-0,032098444894968525	0,0011976361358494314	0,0097233050445595558
1	1	0	0	0	0	2	22897,36	0,100000001	0,959466696	0,00027780876482319501	0,10001115654720464	9,59573736E-005	-0,031820636130145331	0,001187270717316021	0,01000111380938275
1	1	0	0	0	0	2	22907,36	0,100000001	0,962273657	0,00027780876374782787	0,10001115616007246	9,62381018E-005	-0,031542827366397504	0,0011769052988227341	0,010278922573130579
1	1	0	0	0	0	2	22917,36	0,100000001	0,965118766	0,00027780881202634838	0,10001117354034005	9,65226573E-005	-0,031265018554371162	0,0011665398785281109	0,010556731385156926
1	1	0	0	0	0	2	22927,36	0,100000001	0,967849374	0,00027780897997568051	0,10001123400210034	9,67958113E-005	-0,030987209574395475	0,001156174451967072	0,010834540365132608
1	1	0	0	0	0	2	22937,36	0,100000001	0,970732689	0,00027780858321198163	0,10001109116716701	9,70840338E-005	-0,030709400991183494	0,0011458090402098203	0,01111234894834459
1	1	0	0	0	0	2	22947,36	0,100000001	0,973654211	0,00027780871428425117	0,10001113835318461	9,73762653E-005	-0,030431592276899245	0,0011354436235620859	0,011390157662628842
1	1	0	0	0	0	2	22957,36	0,100000001	0,976671219	0,00027780860168197085	0,10001109781636323	9,76779629E-005	-0,030153783675217274	0,0011250782111156939	0,011667966264310813
1	1	0	0	0	0	2	22967,36	0,100000001	0,980203748	0,00027780867945154509	0,10001112581341029	9,80312834E-005	-0,029875974995765728	0,0011147127957676149	0,011945774943762355
1	1	0	0	0	0	2	22977,36	0,100000001	0,98427099	0,00027780869395327238	0,10001113103403216	9,84380531E-005	-0,029598166301812454	0,001104347379878457	0,012223583637715627
1	1	0	0	0	0	2	22987,36	0,100000001	0,989216566	0,00027780873374185629	0,10001114535792254	9,893268E-005	-0,029320357568070598	0,001093981962504733	0,012501392371457485
1	1	0	0	0	0	2	22997,36	0,100000001	0,995116889	0,00027780874301617347	0,10001114869667677	9,9522782E-005	-0,029042548825054426	0,001083616544784972	0,012779201114473659
1	1	0	0	0	0	2	23007,36	0,100000001	1,00292671	0,00027780856070708899	0,10001108306540555	0,000100303783	-0,028764740264347338	0,0010732511338674082	0,013057009675180749
1	1	0	0	0	0	2	23017,36	0,100000001	1,01197767	0,0002778083103982111	0,10001099295420842	0,000101208891	-0,028486931953949123	0,0010628857322892051	0,01333481798557896
1	1	0	0	0	0	2	23027,36	0,100000001	1,02213621	0,00027780854385967056	0,10001107700033486	0,000102224942	-0,028209123410089456	0,001052520322000241	0,01361262652943863
1	1	0	0	0	0	2	23037,36	0,100000001	1,03260016	0,00027780806874649395	0,10001090595958922	0,000103271275	-0,02793131534134296	0,0010421549294383882	0,013890434598185123
1	1	0	0	0	0	2	23047,36	0,100000001	1,0431788	0,0002778085430169271	0,10001107669694722	0,000104329432	-0,027653506798326032	0,001031789519180868	0,014168243141202051
1	1	0	0	0	0	2	23057,36	0,100000001	1,05358553	0,0002778086031319367	0,10001109833835093	0,000105370244	-0,027375698195194093	0,001021424106680376	0,014446051744333984
1	1	0	0	0	0	2	23067,36	0,100000001	1,06357217	0,00027780858511560493	0,10001109185247141	0,000106369014	-0,027097889610078486	0,0010110586948520976	0,01472386032944959
1	1	0	0	0	0	2	23077,36	0,100000001	1,07340598	0,00027780847123141088	0,10001105085416106	0,000107352462	-0,026820081138847075	0,0010006932872729914	0,015001668800681002
1	1	0	0	0	0	2	23087,36	0,100000001	1,08274341	0,0002778086196742952	0,10001110429360006	0,000108286367	-0,026542272519172781	0,00099032787415528179	0,015279477420355296
1	1	0	0	0	0	2	23097,36	0,100000001	1,09190905	0,0002778086071647704	0,10001109979017107	0,000109203022	-0,02626446391200801	0,00097996246150431936	0,01555728602752007
1	1	0	0	0	0	2	23107,36	0,100000001	1,10076904	0,00027780802926752301	0,1000108917471595	0,000110088891	-0,025986655882740486	0,00096959707041548006	0,01583509405678759
1	1	0	0	0	0	2	23117,36	0,100000001	1,10953355	0,00027780848785448403	0,10001105683846747	0,000110965622	-0,025708847394886003	0,00095923166221614477	0,016112902544642074
1	1	0	0	0	0	2	23127,36	0,100000001	1,11791623	0,00027780886354918278	0,10001119208856066	0,000111804133	-0,025431038531336819	0,00094886623999913523	0,016390711408191258
1	1	0	0	0	0	2	23137,36	0,100000001	1,12595522	0,00027780849288652336	0,10001105865000166	0,000112607973	-0,025153230038450294	0,00093850083161204774	0,016668519901077782
1	1	0	0	0	0	2	23147,36	0,100000001	1,13380325	0,00027780834740731456	0,10001100627748582	0,000113392802	-0,024875421691042979	0,00092813542865298509	0,016946328248485098
1	1	0	0	0	0	2	23157,36	0,100000001	1,14161301	0,00027780810014117094	0,10001091726167307	0,000114173767	-0,024597613590901808	0,00091777003491975501	0,017224136348626269
1	1	0	0	0	0	2	23167,36	0,100000001	1,1493274	0,00027780858408990838	0,10001109148322064	0,000114945491	-0,024319805006811898	0,00090740462312974656	0,017501944932716176
1	1	0	0	0	0	2	23177,36	0,100000001	1,1566025	0,0002778085114206705	0,1000110653222947	0,00011567305	-0,024041996495391229	0,00089703921405112525	0,017779753444136848
1	1	0	0	0	0	2	23187,36	0,100000001	1,16395414	0,00027780839161492054	0,10001102219222421	0,000116408242	-0,023764188103776304	0,00088667380944261734	0,01805756183575177
1	1	0	0	0	0	2	23197,36	0,100000001	1,17126739	0,00027780835806992317	0,10001101011602499	0,000117139636	-0,023486379745706384	0,00087630840608571853	0,018335370193821693
1	1	0	0	0	0	2	23207,36	0,100000001	1,17844713	0,00027780855869170694	0,100011082339868	0,000117857773	-0,023208571187014675	0,0008659429952433513	0,018613178752513398
1	1	0	0	0	0	2	23217,36	0,100000001	1,18553138	0,00027780832776096131	0,10001099920479859	0,000118566175	-0,022930762859253715	0,00085557759301732058	0,018890987080274362
1	1	0	0	0	0	2	23227,36	0,100000001	1,19276834	0,0002778084141131904	0,10001103029160144	0,000119289987	-0,022652954445140525	0,00084521218756937216	0,019168795494387552
1	1	0	0	0	0	2	23237,36	0,100000001	1,19990981	0,00027780800394920835	0,10001088263256611	0,000120004042	-0,022375146441191315	0,00083484679742519322	0,019446603498336762
1	1	0	0	0	0	2	23247,36	0,100000001	1,20695579	0,00027780836873294582	0,10001101395471318	0,000120708872	-0,022097338072458371	0,00082448139367044288	0,019724411867069706
1	1	0	0	0	0	2	23257,36	0,100000001	1,21409726	0,00027780828160213098	0,10001098258761949	0,000121423058	-0,02181952979085624	0,0008141159931666601	0,020002220148671837
1	1	0	0	0	0	2	23267,36	0,100000001	1,22129607	0,00027780870143903626	0,10001113372890718	0,000122143203	-0,021541721089417203	0,00080375057699819814	0,020280028850110874
1	1	0	0	0	0	2	23277,36	0,100000001	1,22836125	0,00027780838479101658	0,10001101973561874	0,000122849655	-0,021263912704626186	0,00079338517264429939	0,020557837234901888
1	1	0	0	0	0	2	23287,36	0,100000001	1,23565543	0,00027780871691554787	0,10001113930045144	0,000123579302	-0,020986103987710637	0,00078301975589838784	0,020835645951817437
1	1	0	0	0	0	2	23297,36	0,100000001	1,24294972	0,00027780875504265232	0,1000111530262092	0,000124308834	-0,020708295232667987	0,00077265433772990285	0,02111345470686009
1	1	0	0	0	0	2	23307,36	0,100000001	1,25011027	0,00027780881292869648	0,10001117386518536	0,000125024992	-0,02043048641973929	0,00076228891740161152	0,021391263519788784
1	1	0	0	0	0	2	23317,36	0,100000001	1,25744271	0,0002778087878442473	0,10001116483478357	0,000125758306	-0,020152677631895043	0,00075192349800925491	0,02166907230763303
1	1	0	0	0	0	2	23327,36	0,100000001	1,26471794	0,00027780844337907098	0,10001104082731858	0,000126485756	-0,019874869188515974	0,00074155809146935718	0,021946880751012102
1	1	0	0	0	0	2	23337,36	0,100000001	1,27222216	0,00027780885168744458	0,10001118781833485	0,000127236446	-0,019597060336828531	0,00073119266969492506	0,022224689602699546
1	1	0	0	0	0	2	23347,36	0,100000001	1,27961195	0,00027780871806335117	0,10001113971366064	0,000127975451	-0,019319251618765178	0,00072082725290618739	0,022502498320762899
1	1	0	0	0	0	2	23357,36	0,100000001	1,28707802	0,0002778085088200039	0,1000110643860547	0,000128722037	-0,019041443109945171	0,00071046184392460032	0,022780306829582902
1	1	0	0	0	0	2	23367,36	0,100000001	1,29460144	0,0002778087473830415	0,1000111502687493	0,000129474574	-0,018763634362562131	0,00070009642604190566	0,023058115576965946
1	1	0	0	0	0	2	23377,36	0,100000001	1,30210578	0,00027780859554020893	0,10001109560532891	0,000130225031	-0,018485825767021923	0,00068973101382467123	0,023335924172506154
1	1	0	0	0	0	2	23387,36	0,100000001	1,30974364	0,00027780874777626656	0,10001115041031032	0,000130988963	-0,018208017019245658	0,00067936559592730483	0,023613732920282419
1	1	0	0	0	0	2	23397,36	0,100000001	1,31720984	0,00027780849413366784	0,10001105909897366	0,000131735549	-0,017930208525111987	0,00066900018749368474	0,023891541414416086
1	1	0	0	0	0	2	23407,36	0,100000001	1,32479048	0,0002778092097921504	0,1000113167360305	0,000132494039	-0,01765239931531984	0,00065863475235788454	0,024169350624208237
1	1	0	0	0	0	2	23417,36	0,100000001	1,3324666	0,00027780903408345254	0,1000112534808985	0,000133261652	-0,017374590281236387	0,00064826932377801203	0,02444715965829169
1	1	0	0	0	0	2	23427,36	0,100000001	1,34014285	0,00027780905147517715	0,10001125974191946	0,000134029367	-0,01709678122976121	0,00063790389454923085	0,024724968709766867
1	1	0	0	0	0	2	23437,36	0,100000001	1,34781897	0,0002778087740631567	0,10001115987359088	0,000134796937	-0,016818972455698051	0,00062753847567106509	0,025002777483830026
1	1	0	0	0	0	2	23447,36	0,100000001	1,35555243	0,00027780861498208506	0,10001110260440438	0,000135570299	-0,016541163840715968	0,00061717306272842816	0,025280586098812109
1	1	0	0	0	0	2	23457,36	0,100000001	1,36309493	0,00027780846342113283	0,10001104804246093	0,000136324554	-0,016263355377294835	0,00060680765544073408	0,025558394562233242
1	1	0	0	0	0	2	23467,36	0,100000001	1,3702364	0,00027780844227886858	0,10001104043124571	0,000137038762	-0,015985546935015968	0,00059644224894188634	0,025836203004512109
1	1	0	0	0	0	2	23477,36	0,100000001	1,37292874	0,00027780858056454195	0,10001109021408872	0,000137308103	-0,015707738354451424	0,00058607683728341427	0,02611401158507665
1	1	0	0	0	0	2	23487,36	0,100000001	1,37134385	0,00027780831956904797	0,10001099625570974	0,000137149458	-0,015429930034882378	0,00057571143536303494	0,026391819904645699
1	1	0	0	0	0	2	23497,36	0,100000001	1,3694917	0,00027780840915524294	0,10001102850674032	0,00013696427	-0,015152121625727136	0,00056534603010007411	0,026669628313800941
1	1	0	0	0	0	2	23507,36	0,100000001	1,3685751	0,00027780832615122195	0,10001099862529242	0,000136872564	-0,014874313299575914	0,00055498062793410496	0,026947436639952163
1	1	0	0	0	0	2	23517,36	0,100000001	1,3688997	0,00027780874525010582	0,10001114950089243	0,000136905233	-0,014596504554325805	0,00054461521013099302	0,027225245385202269
1	1	0	0	0	0	2	23527,36	0,100000001	1,36979723	0,00027780846178573043	0,10001104745371605	0,000136994859	-0,014318696092540078	0,00053424980290431802	0,027503053846988
1	1	0	0	0	0	2	23537,36	0,100000001	1,37149668	0,00027780848325416448	0,1000110551823524	0,000137164825	-0,01404088760928591	0,00052388439487662682	0,027780862330242163
1	1	0	0	0	0	2	23547,36	0,100000001	1,37376893	0,0002778086575348344	0,10001111792339434	0,00013739217	-0,013763078951751075	0,00051351898034628954	0,028058670987776995
1	1	0	0	0	0	2	23557,36	0,100000001	1,37669039	0,00027780878734795587	0,10001116465611862	0,000137684416	-0,01348527016440312	0,00050315356097245024	0,02833647977512495
1	1	0	0	0	0	2	23567,36	0,100000001	1,38047123	0,00027780835047074493	0,10001100738032077	0,000138062314	-0,013207461813932378	0,00049278815789908691	0,028614288125595696
1	1	0	0	0	0	2	23577,36	0,100000001	1,38505399	0,00027780809883897504	0,10001091679288253	0,000138520525	-0,012929653715093402	0,00048242276421444339	0,028892096224434669
1	1	0	0	0	0	2	23587,36	0,100000001	1,39085889	0,00027780805832644307	0,10001090220837085	0,000139101059	-0,012651845656766958	0,00047205737204137683	0,029169904282761114
1	1	0	0	0	0	2	23597,36	0,100000001	1,39750385	0,00027780839778772659	0,1000110244144344	0,000139765791	-0,01237403725897923	0,00046169196720255334	0,029447712680548838
1	1	0	0	0	0	2	23607,36	0,100000001	1,40535188	0,00027780858387135798	0,1000110914045425	0,000140550779	-0,012096228675107874	0,00045132655542069939	0,029725521264420198
1	1	0	0	0	0	2	23617,36	0,100000001	1,41392553	0,00027780879491195082	0,10001116737915685	0,000141408338	-0,011818419880195922	0,00044096113576463718	0,030003330059332147
1	1	0	0	0	0	2	23627,36	0,100000001	1,42305291	0,0002778085349661609	0,10001107379867134	0,000142321049	-0,01154061134522976	0,00043059572580750189	0,03028113859429831
1	1	0	0	0	0	2	23637,36	0,100000001	1,43284857	0,00027780863425218397	0,1000111095416401	0,000143300771	-0,011262802710977576	0,00042023031214587162	0,030558947228550496
1	1	0	0	0	0	2	23647,36	0,100000001	1,44356084	0,00027780857207046614	0,10001108715622138	0,000144372083	-0,010984994138907109	0,0004098649008043248	0,03083675580062096
1	1	0	0	0	0	2	23657,36	0,100000001	1,45545697	0,00027780865976048842	0,10001111872462979	0,000145561877	-0,010707185479146621	0,00039949948619094541	0,031114564460381446
1	1	0	0	0	0	2	23667,36	0,100000001	1,46905255	0,00027780884761859974	0,10001118635355069	0,000146921695	-0,010429376631528022	0,0003891340645683273	0,031392373308000045
1	1	0	0	0	0	2	23677,36	0,100000001	1,48635244	0,00027780855179371104	0,10001107985658947	0,000148651714	-0,01015156807973431	0,0003787686539833335	0,031670181859793754
1	1	0	0	0	0	2	23687,36	0,100000001	1,51209247	0,00027780873924576573	0,10001114733932997	0,000151226108	-0,0098737593404885453	0,00036840323640425146	0,03194799059903952
1	1	0	0	0	0	2	23697,36	0,100000001	1,57699597	0,00027780861264508634	0,10001110176308483	0,000157717106	-0,0095959507278434586	0,00035803782354881101	0,032225799211684608
1	1	0	0	0	0	2	23707,36	0,100000001	1,77487648	0,00027780846585457523	0,10001104891850019	0,00017750726	-0,0093181422619888832	0,00034767241617032198	0,032503607677539181
1	1	0	0	0	0	2	23717,36	0,100000001	2,01852751	0,00027780867229153715	0,10001112323580739	0,000201875198	-0,0090403335896973453	0,00033730700108939226	0,03278141634983072
1	1	0	0	0	0	2	23727,36	0,100000001	2,22452974	0,00027780852769522205	0,10001107118113333	0,000222477596	-0,0087625250620021235	0,00032694159140354554	0,033059224877525946
1	1	0	0	0	0	2	23737,36	0,100000001	2,40047026	0,00027780891972780227	0,1000112123128639	0,000240073947	-0,0084847161422743219	0,0003165761670904361	0,033337033797253754
1	1	0	0	0	0	2	23747,36	0,100000001	2,55122471	0,00027780885048210624	0,10001118738441302	0,000255151012	-0,0082069072917922163	0,0003062107453609767	0,033614842647735859
1	1	0	0	0	0	2	23757,36	0,100000001	2,68542361	0,00027780884276371862	0,10001118460579347	0,000268572388	-0,0079290984490284979	0,00029584532391950074	0,033892651490499571
1	1	0	0	0	0	2	23767,36	0,100000001	2,804003	0,00027780881554178064	0,10001117480589568	0,000280431646	-0,0076512896334867162	0,00028547990349371181	0,03417046030604135
1	1	0	0	0	0	2	23777,36	0,100000001	2,9103806	0,00027780889091806278	0,10001120194135757	0,000291070668	-0,0073734807425686541	0,00027511448025553251	0,034448269196959418
1	1	0	0	0	0	2	23787,36	0,100000001	3,00633264	0,00027780870125277171	0,10001113366185197	0,000300666725	-0,0070956720413158822	0,00026474906409402022	0,034726077898212186
1	1	0	0	0	0	2	23797,36	0,100000001	3,09308076	0,00027780865656791462	0,1000111175753032	0,00030934246	-0,006817863384747968	0,00025438364959976	0,035003886554780102
1	1	0	0	0	0	2	23807,36	0,100000001	3,1712935	0,00027780851907655594	0,10001106807841349	0,000317164464	-0,0065400548656714112	0,00024401824023548726	0,035281695073856659
1	1	0	0	0	0	2	23817,36	0,100000001	3,24133372	0,00027780833185008826	0,10001100067688432	0,000324169028	-0,0062622465338213235	0,00023365283785688579	0,035559503405706746
1	1	0	0	0	0	2	23827,36	0,100000001	3,30278111	0,00027780812144072518	0,10001092492951269	0,000330314186	-0,0059844384123805978	0,00022328744332894048	0,035837311527147469
1	1	0	0	0	0	2	23837,36	0,100000001	3,35580754	0,00027780816983390189	0,10001094235105651	0,000335617486	-0,005706630242546695	0,00021292204699538074	0,03611511969698137
1	1	0	0	0	0	2	23847,36	0,100000001	3,40251374	0,00027780886916816234	0,10001119411139331	0,000340289465	-0,0054288213733785331	0,00020255662456871946	0,036392928566149536
1	1	0	0	0	0	2	23857,36	0,100000001	3,44417882	0,00027780897916522291	0,1000112337103356	0,000344456581	-0,0051510123942133101	0,00019219119803791994	0,036670737545314758
1	1	0	0	0	0	2	23867,36	0,100000001	3,48225403	0,0002778088259924617	0,1000111785681409	0,000348264322	-0,0048732035682208486	0,00018182577722220208	0,036948546371307219
1	1	0	0	0	0	2	23877,36	0,100000001	3,51740789	0,00027780865228962563	0,10001111603511917	0,00035177989	-0,0045953949159312224	0,00017146036288757059	0,037226355023596845
1	1	0	0	0	0	2	23887,36	0,100000001	3,55015564	0,00027780847279023795	0,1000110514153388	0,000355054799	-0,004317586443140985	0,00016109495525030259	0,037504163496387078
1	1	0	0	0	0	2	23897,36	0,100000001	3,58097482	0,00027780849258063568	0,10001105853988208	0,000358137069	-0,0040397779505603488	0,00015072954687462826	0,037781971988967712
1	1	0	0	0	0	2	23907,36	0,100000001	3,61070561	0,00027780839102880822	0,10001102198122376	0,000361110346	-0,0037619695595315405	0,00014036414228798914	0,038059780379996525
1	1	0	0	0	0	2	23917,36	0,100000001	3,64028358	0,00027780848078885008	0,10001105429483922	0,000364068605	-0,0034841610787426906	0,00012999873435228218	0,03833758886078537
1	1	0	0	0	0	2	23927,36	0,100000001	3,67012882	0,00027780895492103366	0,10001122498242736	0,000367054075	-0,0032063521238216563	0,00011963330872606597	0,038615397815706406
1	1	0	0	0	0	2	23937,36	0,100000001	3,70047069	0,00027780881031561229	0,10001117292447504	0,000370088412	-0,0029285433135060442	0,00010926788849527243	0,038893206626022016
1	1	0	0	0	0	2	23947,36	0,100000001	3,73123264	0,00027780864376409184	0,10001111296592696	0,000373164716	-0,002650734669741952	9,8902474478740096E-005	0,039171015269786112
1	1	0	0	0	0	2	23957,36	0,100000001	3,76157427	0,00027780869166097709	0,10001113020880586	0,000376199285	-0,0023729259780809747	8,8537058675110541E-005	0,039448823961447091
1	1	0	0	0	0	2	23967,36	0,100000001	3,79168701	0,00027780855184627907	0,10001107987551395	0,000379210716	-0,0020951174262346957	7,8171648088155366E-005	0,03972663251329337
1	1	0	0	0	0	2	23977,36	0,100000001	3,82071137	0,00027780856071950662	0,10001108306987594	0,000382113474	-0,0018173088655151891	6,7806237170128141E-005	0,040004441074012883
1	1	0	0	0	0	2	23987,36	0,100000001	3,84899092	0,00027780851846974758	0,10001106785996246	0,000384941697	-0,0015395003470454413	5,7440827828496224E-005	0,04028224959248263
1	1	0	0	0	0	2	23997,36	0,100000001	3,8765831	0,00027780843503856003	0,10001103782473458	0,000387701089	-0,0012616919120068813	4,7075421599794093E-005	0,04056005802752119
1	1	0	0	0	0	2	24007,36	0,100000001	3,90323949	0,00027780834325154621	0,10001100478140922	0,000390366913	-0,00098388356875533504	3,6710018795788858E-005	0,040837866370772742
1	1	0	0	0	0	2	24017,36	0,100000001	3,92926574	0,0002778084415006969	0,10001104015110389	0,00039296996	-0,00070607512725463808	2,6344612325975715E-005	0,041115674812273434
1	1	0	0	0	0	2	24027,36	0,100000001	3,95450926	0,00027780879943942032	0,10001116900904587	0,000395495095	-0,00042826632781521773	1,5979192500987549E-005	0,041393483611712858
1	1	0	0	0	0	2	24037,36	0,100000001	3,97942805	0,00027780871229122083	0,1000111376356937	0,00039798714	-0,0001504576155239969	5,6137759276158765E-006	0,041671292324004077
1	1	0	0	0	0	2	24047,36	0,100000001	4,00413704	0,00027780854014307264	0,10001107566235958	0,000400458055	0,00012735092461907573	-4,7516342226769306E-006	0,041949100864147155
1	1	0	0	0	0	2	24057,36	0,100000001	4,02838755	0,0002778088123980496	0,10001117367415248	0,000402883772	0,00040515973701712531	-1,5117054531168979E-005	0,042226909676545203
1	1	0	0	0	0	2	24067,36	0,100000001	4,05261898	0,00027780871474701498	0,1000111385197796	0,000405307044	0,00068296845176414042	-2,5482471196169635E-005	0,042504718391292218
1	1	0	0	0	0	2	24077,36	0,100000001	4,07732773	0,00027780867948879802	0,10001112582682134	0,000407778134	0,00096077713125293837	-3,5847886545638803E-005	0,042782527070781011
1	1	0	0	0	0	2	24087,36	0,100000001	4,10188389	0,00027780871382272906	0,10001113818703666	0,00041023409	0,0012385858450756675	-4,6213303176153107E-005	0,043060335784603744
1	1	0	0	0	0	2	24097,36	0,100000001	4,12617254	0,0002778084601420495	0,10001104686199093	0,000412662834	0,0015163943052177171	-5,6578710341500179E-005	0,043338144244745786
1	1	0	0	0	0	2	24107,36	0,100000001	4,14956379	0,00027780888838072611	0,10001120102791638	0,000415002869	0,0017942031935984429	-6,6944133485008051E-005	0,043615953133126515
1	1	0	0	0	0	2	24117,36	0,100000001	4,17194319	0,00027780884572656621	0,10001118567241861	0,000417240983	0,0020720120393250093	-7,7309555037031872E-005	0,043893761978853088
1	1	0	0	0	0	2	24127,36	0,100000001	4,19310045	0,00027780873031293354	0,10001114412351034	0,000419356773	0,0023498207696379427	-8,7674972282817869E-005	0,044171570709166016
1	1	0	0	0	0	2	24131,10	0,100000001	4,1999054	0,00010398367460982667	0,1000110160642735	0,000420036813	0,0024538044442477693	-9,1554742990047923E-005	0,044275554383775846