F900-900-2St_P2-Probe9  Original Data
 3151 
 12            364 
 12.02         379 
 12.04         407 
 12.06         368 
 12.08         372 
 12.1          378 
 12.12         374 
 12.14         382 
 12.16         391 
 12.18         398 
 12.2          371 
 12.22         353 
 12.24         398 
 12.26         345 
 12.28         445 
 12.3          370 
 12.32         400 
 12.34         376 
 12.36         372 
 12.38         419 
 12.4          398 
 12.42         390 
 12.44         418 
 12.46         410 
 12.48         381 
 12.5          393 
 12.52         377 
 12.54         404 
 12.56         372 
 12.58         402 
 12.6          407 
 12.62         393 
 12.64         384 
 12.66         410 
 12.68         386 
 12.7          432 
 12.72         411 
 12.74         379 
 12.76         423 
 12.78         369 
 12.8          414 
 12.82         336 
 12.84         427 
 12.86         365 
 12.88         405 
 12.9          379 
 12.92         427 
 12.94         380 
 12.96         432 
 12.98         399 
 13            429 
 13.02         429 
 13.04         402 
 13.06         407 
 13.08         430 
 13.1          403 
 13.12         373 
 13.14         409 
 13.16         364 
 13.18         419 
 13.2          382 
 13.22         416 
 13.24         355 
 13.26         366 
 13.28         371 
 13.3          356 
 13.32         385 
 13.34         371 
 13.36         433 
 13.38         347 
 13.4          377 
 13.42         354 
 13.44         410 
 13.46         380 
 13.48         407 
 13.5          354 
 13.52         394 
 13.54         349 
 13.56         348 
 13.58         327 
 13.6          357 
 13.62         383 
 13.64         357 
 13.66         374 
 13.68         369 
 13.7          365 
 13.72         387 
 13.74         366 
 13.76         327 
 13.78         363 
 13.8          361 
 13.82         353 
 13.84         359 
 13.86         392 
 13.88         346 
 13.9          310 
 13.92         333 
 13.94         346 
 13.96         371 
 13.98         359 
 14            371 
 14.02         361 
 14.04         355 
 14.06         331 
 14.08         358 
 14.1          332 
 14.12         368 
 14.14         318 
 14.16         296 
 14.18         334 
 14.2          305 
 14.22         297 
 14.24         295 
 14.26         350 
 14.28         308 
 14.3          307 
 14.32         328 
 14.34         318 
 14.36         292 
 14.38         319 
 14.4          315 
 14.42         370 
 14.44         295 
 14.46         342 
 14.48         337 
 14.5          346 
 14.52         352 
 14.54         334 
 14.56         383 
 14.58         396 
 14.6          442 
 14.62         435 
 14.64         509 
 14.66         485 
 14.68         543 
 14.7          582 
 14.72         614 
 14.74         662 
 14.76         731 
 14.78         817 
 14.8          867 
 14.82         923 
 14.84         1108 
 14.86         1248 
 14.88         1454 
 14.9          1580 
 14.92         1746 
 14.94         2101 
 14.96         2513 
 14.98         3023 
 15            3511 
 15.02         4085 
 15.04         4726 
 15.06         5205 
 15.08         5177 
 15.1          4438 
 15.12         3660 
 15.14         2721 
 15.16         1635 
 15.18         1035 
 15.2          721 
 15.22         469 
 15.24         432 
 15.26         395 
 15.28         367 
 15.3          321 
 15.32         301 
 15.34         305 
 15.36         288 
 15.38         283 
 15.4          303 
 15.42         231 
 15.44         278 
 15.46         262 
 15.48         257 
 15.5          239 
 15.52         281 
 15.54         279 
 15.56         241 
 15.58         260 
 15.6          232 
 15.62         243 
 15.64         203 
 15.66         244 
 15.68         232 
 15.7          265 
 15.72         233 
 15.74         254 
 15.76         241 
 15.78         224 
 15.8          254 
 15.82         248 
 15.84         258 
 15.86         218 
 15.88         222 
 15.9          238 
 15.92         235 
 15.94         205 
 15.96         236 
 15.98         216 
 16            193 
 16.02         204 
 16.04         209 
 16.06         234 
 16.08         232 
 16.1          215 
 16.12         249 
 16.14         224 
 16.16         233 
 16.18         209 
 16.2          199 
 16.22         247 
 16.24         207 
 16.26         221 
 16.28         231 
 16.3          209 
 16.32         199 
 16.34         216 
 16.36         193 
 16.38         218 
 16.4          225 
 16.42         211 
 16.44         229 
 16.46         195 
 16.48         184 
 16.5          214 
 16.52         197 
 16.54         214 
 16.56         216 
 16.58         206 
 16.6          186 
 16.62         228 
 16.64         192 
 16.66         191 
 16.68         208 
 16.7          206 
 16.72         214 
 16.74         203 
 16.76         204 
 16.78         180 
 16.8          211 
 16.82         197 
 16.84         183 
 16.86         211 
 16.88         184 
 16.9          205 
 16.92         235 
 16.94         180 
 16.96         194 
 16.98         190 
 17            187 
 17.02         199 
 17.04         201 
 17.06         192 
 17.08         205 
 17.1          207 
 17.12         214 
 17.14         200 
 17.16         229 
 17.18         205 
 17.2          195 
 17.22         207 
 17.24         203 
 17.26         223 
 17.28         192 
 17.3          189 
 17.32         189 
 17.34         210 
 17.36         206 
 17.38         190 
 17.4          187 
 17.42         215 
 17.44         185 
 17.46         180 
 17.48         206 
 17.5          191 
 17.52         192 
 17.54         194 
 17.56         199 
 17.58         175 
 17.6          193 
 17.62         184 
 17.64         180 
 17.66         179 
 17.68         192 
 17.7          185 
 17.72         190 
 17.74         162 
 17.76         189 
 17.78         171 
 17.8          170 
 17.82         181 
 17.84         178 
 17.86         190 
 17.88         174 
 17.9          157 
 17.92         154 
 17.94         169 
 17.96         163 
 17.98         195 
 18            188 
 18.02         200 
 18.04         164 
 18.06         184 
 18.08         170 
 18.1          171 
 18.12         174 
 18.14         195 
 18.16         173 
 18.18         185 
 18.2          177 
 18.22         173 
 18.24         168 
 18.26         181 
 18.28         146 
 18.3          158 
 18.32         162 
 18.34         148 
 18.36         156 
 18.38         166 
 18.4          160 
 18.42         164 
 18.44         168 
 18.46         187 
 18.48         163 
 18.5          173 
 18.52         147 
 18.54         156 
 18.56         169 
 18.58         176 
 18.6          160 
 18.62         140 
 18.64         205 
 18.66         192 
 18.68         166 
 18.7          175 
 18.72         158 
 18.74         149 
 18.76         174 
 18.78         148 
 18.8          173 
 18.82         148 
 18.84         157 
 18.86         150 
 18.88         161 
 18.9          167 
 18.92         146 
 18.94         179 
 18.96         194 
 18.98         139 
 19            189 
 19.02         155 
 19.04         138 
 19.06         174 
 19.08         155 
 19.1          168 
 19.12         182 
 19.14         164 
 19.16         159 
 19.18         153 
 19.2          161 
 19.22         149 
 19.24         143 
 19.26         158 
 19.28         173 
 19.3          165 
 19.32         173 
 19.34         159 
 19.36         143 
 19.38         168 
 19.4          168 
 19.42         161 
 19.44         158 
 19.46         163 
 19.48         147 
 19.5          184 
 19.52         152 
 19.54         151 
 19.56         162 
 19.58         150 
 19.6          140 
 19.62         175 
 19.64         169 
 19.66         159 
 19.68         176 
 19.7          163 
 19.72         152 
 19.74         160 
 19.76         167 
 19.78         170 
 19.8          177 
 19.82         185 
 19.84         184 
 19.86         208 
 19.88         134 
 19.9          191 
 19.92         183 
 19.94         176 
 19.96         164 
 19.98         183 
 20            154 
 20.02         186 
 20.04         166 
 20.06         187 
 20.08         165 
 20.1          168 
 20.12         187 
 20.14         189 
 20.16         176 
 20.18         195 
 20.2          189 
 20.22         206 
 20.24         196 
 20.26         240 
 20.28         239 
 20.3          248 
 20.32         282 
 20.34         292 
 20.36         308 
 20.38         357 
 20.4          355 
 20.42         354 
 20.44         353 
 20.46         383 
 20.48         348 
 20.5          356 
 20.52         339 
 20.54         348 
 20.56         328 
 20.58         327 
 20.6          342 
 20.62         361 
 20.64         355 
 20.66         350 
 20.68         364 
 20.7          376 
 20.72         391 
 20.74         393 
 20.76         371 
 20.78         395 
 20.8          383 
 20.82         456 
 20.84         501 
 20.86         564 
 20.88         629 
 20.9          715 
 20.92         821 
 20.94         948 
 20.96         1127 
 20.98         1360 
 21            1617 
 21.02         1899 
 21.04         2209 
 21.06         2889 
 21.08         3314 
 21.1          4149 
 21.12         4913 
 21.14         6248 
 21.16         7746 
 21.18         9564 
 21.2          11448 
 21.22         13865 
 21.24         15569 
 21.26         16793 
 21.28         16725 
 21.3          16096 
 21.32         14159 
 21.34         12479 
 21.36         10473 
 21.38         9408 
 21.4          9226 
 21.42         9420 
 21.44         10384 
 21.46         11405 
 21.48         12044 
 21.5          11714 
 21.52         10767 
 21.54         9565 
 21.56         7459 
 21.58         5276 
 21.6          3670 
 21.62         2399 
 21.64         1617 
 21.66         1155 
 21.68         896 
 21.7          704 
 21.72         667 
 21.74         607 
 21.76         568 
 21.78         516 
 21.8          513 
 21.82         427 
 21.84         405 
 21.86         367 
 21.88         350 
 21.9          316 
 21.92         260 
 21.94         274 
 21.96         258 
 21.98         241 
 22            247 
 22.02         245 
 22.04         187 
 22.06         197 
 22.08         200 
 22.1          209 
 22.12         202 
 22.14         205 
 22.16         178 
 22.18         175 
 22.2          185 
 22.22         211 
 22.24         190 
 22.26         176 
 22.28         172 
 22.3          161 
 22.32         185 
 22.34         186 
 22.36         153 
 22.38         172 
 22.4          185 
 22.42         155 
 22.44         149 
 22.46         156 
 22.48         170 
 22.5          142 
 22.52         150 
 22.54         156 
 22.56         155 
 22.58         163 
 22.6          164 
 22.62         168 
 22.64         146 
 22.66         183 
 22.68         190 
 22.7          171 
 22.72         151 
 22.74         197 
 22.76         209 
 22.78         213 
 22.8          207 
 22.82         221 
 22.84         243 
 22.86         268 
 22.88         279 
 22.9          305 
 22.92         348 
 22.94         340 
 22.96         356 
 22.98         349 
 23            372 
 23.02         352 
 23.04         403 
 23.06         384 
 23.08         346 
 23.1          381 
 23.12         379 
 23.14         329 
 23.16         315 
 23.18         292 
 23.2          340 
 23.22         272 
 23.24         283 
 23.26         233 
 23.28         205 
 23.3          194 
 23.32         205 
 23.34         195 
 23.36         175 
 23.38         162 
 23.4          184 
 23.42         178 
 23.44         192 
 23.46         200 
 23.48         180 
 23.5          189 
 23.52         188 
 23.54         194 
 23.56         186 
 23.58         198 
 23.6          185 
 23.62         182 
 23.64         156 
 23.66         156 
 23.68         161 
 23.7          159 
 23.72         155 
 23.74         153 
 23.76         142 
 23.78         118 
 23.8          135 
 23.82         144 
 23.84         153 
 23.86         136 
 23.88         164 
 23.9          144 
 23.92         167 
 23.94         161 
 23.96         137 
 23.98         157 
 24            148 
 24.02         155 
 24.04         160 
 24.06         151 
 24.08         148 
 24.1          171 
 24.12         162 
 24.14         133 
 24.16         132 
 24.18         159 
 24.2          150 
 24.22         162 
 24.24         160 
 24.26         160 
 24.28         147 
 24.3          174 
 24.32         166 
 24.34         178 
 24.36         178 
 24.38         167 
 24.4          169 
 24.42         163 
 24.44         167 
 24.46         161 
 24.48         179 
 24.5          194 
 24.52         193 
 24.54         183 
 24.56         209 
 24.58         209 
 24.6          223 
 24.62         241 
 24.64         267 
 24.66         315 
 24.68         341 
 24.7          390 
 24.72         451 
 24.74         511 
 24.76         590 
 24.78         675 
 24.8          792 
 24.82         882 
 24.84         1015 
 24.86         1193 
 24.88         1491 
 24.9          1732 
 24.92         2173 
 24.94         2567 
 24.96         3326 
 24.98         4130 
 25            4968 
 25.02         6281 
 25.04         8403 
 25.06         10368 
 25.08         12995 
 25.1          15754 
 25.12         18409 
 25.14         20120 
 25.16         20680 
 25.18         19271 
 25.2          16699 
 25.22         13652 
 25.24         10099 
 25.26         6897 
 25.28         4656 
 25.3          2997 
 25.32         1830 
 25.34         1304 
 25.36         959 
 25.38         775 
 25.4          627 
 25.42         577 
 25.44         486 
 25.46         441 
 25.48         410 
 25.5          363 
 25.52         339 
 25.54         342 
 25.56         348 
 25.58         292 
 25.6          294 
 25.62         322 
 25.64         370 
 25.66         327 
 25.68         351 
 25.7          386 
 25.72         414 
 25.74         455 
 25.76         544 
 25.78         578 
 25.8          661 
 25.82         810 
 25.84         930 
 25.86         992 
 25.88         1110 
 25.9          1160 
 25.92         1240 
 25.94         1241 
 25.96         1246 
 25.98         1240 
 26            1069 
 26.02         973 
 26.04         842 
 26.06         695 
 26.08         678 
 26.1          561 
 26.12         511 
 26.14         461 
 26.16         459 
 26.18         518 
 26.2          529 
 26.22         617 
 26.24         669 
 26.26         785 
 26.28         942 
 26.3          1101 
 26.32         1148 
 26.34         1198 
 26.36         1231 
 26.38         1306 
 26.4          1184 
 26.42         1103 
 26.44         968 
 26.46         772 
 26.48         651 
 26.5          493 
 26.52         372 
 26.54         332 
 26.56         263 
 26.58         227 
 26.6          201 
 26.62         200 
 26.64         197 
 26.66         199 
 26.68         177 
 26.7          173 
 26.72         182 
 26.74         168 
 26.76         165 
 26.78         167 
 26.8          156 
 26.82         150 
 26.84         138 
 26.86         131 
 26.88         133 
 26.9          138 
 26.92         143 
 26.94         138 
 26.96         169 
 26.98         137 
 27            139 
 27.02         162 
 27.04         161 
 27.06         137 
 27.08         138 
 27.1          143 
 27.12         124 
 27.14         121 
 27.16         155 
 27.18         133 
 27.2          141 
 27.22         151 
 27.24         134 
 27.26         114 
 27.28         145 
 27.3          135 
 27.32         147 
 27.34         129 
 27.36         124 
 27.38         132 
 27.4          145 
 27.42         119 
 27.44         141 
 27.46         124 
 27.48         119 
 27.5          147 
 27.52         143 
 27.54         139 
 27.56         144 
 27.58         156 
 27.6          136 
 27.62         137 
 27.64         111 
 27.66         119 
 27.68         126 
 27.7          137 
 27.72         153 
 27.74         134 
 27.76         131 
 27.78         129 
 27.8          158 
 27.82         143 
 27.84         126 
 27.86         151 
 27.88         129 
 27.9          159 
 27.92         173 
 27.94         180 
 27.96         155 
 27.98         160 
 28            181 
 28.02         184 
 28.04         205 
 28.06         176 
 28.08         196 
 28.1          197 
 28.12         213 
 28.14         215 
 28.16         186 
 28.18         162 
 28.2          145 
 28.22         166 
 28.24         152 
 28.26         178 
 28.28         145 
 28.3          141 
 28.32         140 
 28.34         117 
 28.36         144 
 28.38         117 
 28.4          110 
 28.42         136 
 28.44         146 
 28.46         139 
 28.48         96 
 28.5          107 
 28.52         105 
 28.54         122 
 28.56         106 
 28.58         106 
 28.6          110 
 28.62         132 
 28.64         120 
 28.66         111 
 28.68         104 
 28.7          132 
 28.72         112 
 28.74         122 
 28.76         114 
 28.78         132 
 28.8          146 
 28.82         128 
 28.84         143 
 28.86         161 
 28.88         120 
 28.9          140 
 28.92         118 
 28.94         134 
 28.96         154 
 28.98         130 
 29            159 
 29.02         153 
 29.04         150 
 29.06         146 
 29.08         142 
 29.1          136 
 29.12         115 
 29.14         139 
 29.16         131 
 29.18         140 
 29.2          144 
 29.22         134 
 29.24         139 
 29.26         124 
 29.28         121 
 29.3          134 
 29.32         136 
 29.34         126 
 29.36         123 
 29.38         128 
 29.4          119 
 29.42         131 
 29.44         91 
 29.46         139 
 29.48         108 
 29.5          116 
 29.52         111 
 29.54         140 
 29.56         119 
 29.58         133 
 29.6          135 
 29.62         139 
 29.64         150 
 29.66         165 
 29.68         158 
 29.7          162 
 29.72         169 
 29.74         151 
 29.76         182 
 29.78         187 
 29.8          212 
 29.82         197 
 29.84         223 
 29.86         198 
 29.88         212 
 29.9          215 
 29.92         207 
 29.94         218 
 29.96         229 
 29.98         272 
 30            314 
 30.02         351 
 30.04         354 
 30.06         399 
 30.08         408 
 30.1          468 
 30.12         569 
 30.14         605 
 30.16         726 
 30.18         967 
 30.2          1060 
 30.22         1365 
 30.24         1726 
 30.26         2133 
 30.28         2706 
 30.3          3673 
 30.32         4615 
 30.34         5759 
 30.36         7372 
 30.38         8766 
 30.4          10001 
 30.42         10573 
 30.44         10664 
 30.46         10085 
 30.48         8781 
 30.5          7277 
 30.52         5625 
 30.54         4046 
 30.56         2820 
 30.58         1890 
 30.6          1257 
 30.62         933 
 30.64         652 
 30.66         511 
 30.68         449 
 30.7          390 
 30.72         313 
 30.74         334 
 30.76         292 
 30.78         277 
 30.8          252 
 30.82         238 
 30.84         253 
 30.86         225 
 30.88         199 
 30.9          206 
 30.92         199 
 30.94         195 
 30.96         176 
 30.98         145 
 31            182 
 31.02         172 
 31.04         139 
 31.06         152 
 31.08         141 
 31.1          128 
 31.12         149 
 31.14         164 
 31.16         149 
 31.18         156 
 31.2          130 
 31.22         110 
 31.24         136 
 31.26         124 
 31.28         134 
 31.3          129 
 31.32         137 
 31.34         133 
 31.36         118 
 31.38         121 
 31.4          114 
 31.42         137 
 31.44         122 
 31.46         128 
 31.48         115 
 31.5          120 
 31.52         130 
 31.54         103 
 31.56         123 
 31.58         104 
 31.6          102 
 31.62         124 
 31.64         117 
 31.66         108 
 31.68         113 
 31.7          104 
 31.72         124 
 31.74         73 
 31.76         113 
 31.78         110 
 31.8          105 
 31.82         116 
 31.84         118 
 31.86         120 
 31.88         96 
 31.9          120 
 31.92         113 
 31.94         124 
 31.96         134 
 31.98         97 
 32            127 
 32.02         83 
 32.04         111 
 32.06         104 
 32.08         110 
 32.1          105 
 32.12         103 
 32.14         108 
 32.16         96 
 32.18         142 
 32.2          118 
 32.22         108 
 32.24         119 
 32.26         110 
 32.28         105 
 32.3          107 
 32.32         123 
 32.34         101 
 32.36         116 
 32.38         123 
 32.4          100 
 32.42         111 
 32.44         105 
 32.46         118 
 32.48         128 
 32.5          117 
 32.52         132 
 32.54         133 
 32.56         113 
 32.58         126 
 32.6          128 
 32.62         140 
 32.64         120 
 32.66         151 
 32.68         151 
 32.7          134 
 32.72         131 
 32.74         153 
 32.76         188 
 32.78         159 
 32.8          171 
 32.82         168 
 32.84         145 
 32.86         169 
 32.88         163 
 32.9          186 
 32.92         164 
 32.94         174 
 32.96         193 
 32.98         186 
 33            216 
 33.02         222 
 33.04         215 
 33.06         252 
 33.08         274 
 33.1          313 
 33.12         321 
 33.14         382 
 33.16         433 
 33.18         560 
 33.2          672 
 33.22         770 
 33.24         959 
 33.26         1277 
 33.28         1523 
 33.3          1874 
 33.32         2354 
 33.34         2708 
 33.36         3013 
 33.38         3349 
 33.4          3408 
 33.42         3517 
 33.44         3311 
 33.46         2878 
 33.48         2532 
 33.5          2074 
 33.52         1640 
 33.54         1364 
 33.56         1014 
 33.58         826 
 33.6          669 
 33.62         609 
 33.64         564 
 33.66         561 
 33.68         559 
 33.7          613 
 33.72         713 
 33.74         846 
 33.76         957 
 33.78         1208 
 33.8          1587 
 33.82         1998 
 33.84         2455 
 33.86         3081 
 33.88         3870 
 33.9          4751 
 33.92         5599 
 33.94         6222 
 33.96         6638 
 33.98         6686 
 34            6445 
 34.02         5916 
 34.04         5192 
 34.06         4470 
 34.08         3425 
 34.1          2537 
 34.12         1994 
 34.14         1456 
 34.16         1038 
 34.18         780 
 34.2          548 
 34.22         425 
 34.24         362 
 34.26         296 
 34.28         276 
 34.3          270 
 34.32         234 
 34.34         228 
 34.36         218 
 34.38         187 
 34.4          172 
 34.42         170 
 34.44         179 
 34.46         152 
 34.48         156 
 34.5          146 
 34.52         133 
 34.54         148 
 34.56         151 
 34.58         161 
 34.6          162 
 34.62         140 
 34.64         134 
 34.66         133 
 34.68         148 
 34.7          111 
 34.72         143 
 34.74         119 
 34.76         137 
 34.78         122 
 34.8          136 
 34.82         128 
 34.84         120 
 34.86         125 
 34.88         102 
 34.9          137 
 34.92         121 
 34.94         123 
 34.96         114 
 34.98         118 
 35            121 
 35.02         132 
 35.04         138 
 35.06         131 
 35.08         138 
 35.1          142 
 35.12         124 
 35.14         118 
 35.16         129 
 35.18         156 
 35.2          121 
 35.22         134 
 35.24         114 
 35.26         102 
 35.28         110 
 35.3          113 
 35.32         92 
 35.34         117 
 35.36         125 
 35.38         118 
 35.4          112 
 35.42         100 
 35.44         120 
 35.46         107 
 35.48         124 
 35.5          122 
 35.52         106 
 35.54         120 
 35.56         108 
 35.58         119 
 35.6          111 
 35.62         106 
 35.64         122 
 35.66         117 
 35.68         132 
 35.7          123 
 35.72         129 
 35.74         124 
 35.76         145 
 35.78         150 
 35.8          144 
 35.82         174 
 35.84         155 
 35.86         145 
 35.88         144 
 35.9          171 
 35.92         169 
 35.94         167 
 35.96         151 
 35.98         168 
 36            162 
 36.02         165 
 36.04         131 
 36.06         148 
 36.08         163 
 36.1          153 
 36.12         165 
 36.14         142 
 36.16         159 
 36.18         139 
 36.2          160 
 36.22         166 
 36.24         144 
 36.26         162 
 36.28         151 
 36.3          157 
 36.32         136 
 36.34         125 
 36.36         140 
 36.38         121 
 36.4          117 
 36.42         125 
 36.44         107 
 36.46         113 
 36.48         107 
 36.5          111 
 36.52         111 
 36.54         98 
 36.56         108 
 36.58         112 
 36.6          108 
 36.62         105 
 36.64         104 
 36.66         91 
 36.68         92 
 36.7          105 
 36.72         99 
 36.74         110 
 36.76         87 
 36.78         85 
 36.8          94 
 36.82         98 
 36.84         115 
 36.86         101 
 36.88         126 
 36.9          118 
 36.92         114 
 36.94         122 
 36.96         122 
 36.98         136 
 37            164 
 37.02         181 
 37.04         191 
 37.06         203 
 37.08         206 
 37.1          248 
 37.12         250 
 37.14         242 
 37.16         291 
 37.18         291 
 37.2          301 
 37.22         317 
 37.24         350 
 37.26         331 
 37.28         382 
 37.3          457 
 37.32         466 
 37.34         528 
 37.36         657 
 37.38         819 
 37.4          945 
 37.42         1292 
 37.44         1645 
 37.46         2017 
 37.48         2687 
 37.5          3323 
 37.52         3920 
 37.54         4473 
 37.56         4960 
 37.58         5357 
 37.6          5665 
 37.62         5634 
 37.64         5805 
 37.66         5581 
 37.68         5478 
 37.7          5261 
 37.72         4858 
 37.74         4325 
 37.76         3843 
 37.78         3155 
 37.8          2596 
 37.82         2168 
 37.84         1732 
 37.86         1399 
 37.88         1117 
 37.9          830 
 37.92         686 
 37.94         499 
 37.96         499 
 37.98         416 
 38            352 
 38.02         381 
 38.04         378 
 38.06         340 
 38.08         360 
 38.1          322 
 38.12         325 
 38.14         259 
 38.16         250 
 38.18         252 
 38.2          234 
 38.22         193 
 38.24         196 
 38.26         199 
 38.28         151 
 38.3          164 
 38.32         141 
 38.34         142 
 38.36         132 
 38.38         132 
 38.4          133 
 38.42         121 
 38.44         124 
 38.46         132 
 38.48         145 
 38.5          131 
 38.52         119 
 38.54         130 
 38.56         121 
 38.58         114 
 38.6          109 
 38.62         133 
 38.64         115 
 38.66         122 
 38.68         121 
 38.7          112 
 38.72         118 
 38.74         111 
 38.76         137 
 38.78         107 
 38.8          141 
 38.82         131 
 38.84         149 
 38.86         143 
 38.88         142 
 38.9          164 
 38.92         165 
 38.94         173 
 38.96         188 
 38.98         184 
 39            193 
 39.02         170 
 39.04         171 
 39.06         187 
 39.08         174 
 39.1          158 
 39.12         146 
 39.14         141 
 39.16         130 
 39.18         133 
 39.2          131 
 39.22         133 
 39.24         141 
 39.26         143 
 39.28         149 
 39.3          141 
 39.32         187 
 39.34         154 
 39.36         158 
 39.38         168 
 39.4          167 
 39.42         159 
 39.44         175 
 39.46         152 
 39.48         171 
 39.5          167 
 39.52         166 
 39.54         164 
 39.56         154 
 39.58         151 
 39.6          137 
 39.62         186 
 39.64         167 
 39.66         150 
 39.68         158 
 39.7          175 
 39.72         167 
 39.74         179 
 39.76         171 
 39.78         185 
 39.8          186 
 39.82         216 
 39.84         201 
 39.86         219 
 39.88         225 
 39.9          246 
 39.92         261 
 39.94         308 
 39.96         320 
 39.98         281 
 40            304 
 40.02         294 
 40.04         298 
 40.06         272 
 40.08         286 
 40.1          265 
 40.12         241 
 40.14         233 
 40.16         186 
 40.18         170 
 40.2          153 
 40.22         156 
 40.24         144 
 40.26         129 
 40.28         132 
 40.3          106 
 40.32         131 
 40.34         141 
 40.36         138 
 40.38         111 
 40.4          107 
 40.42         104 
 40.44         113 
 40.46         117 
 40.48         137 
 40.5          116 
 40.52         133 
 40.54         100 
 40.56         126 
 40.58         103 
 40.6          115 
 40.62         115 
 40.64         114 
 40.66         108 
 40.68         104 
 40.7          121 
 40.72         100 
 40.74         113 
 40.76         103 
 40.78         100 
 40.8          120 
 40.82         102 
 40.84         111 
 40.86         106 
 40.88         112 
 40.9          105 
 40.92         116 
 40.94         99 
 40.96         105 
 40.98         76 
 41            78 
 41.02         108 
 41.04         108 
 41.06         97 
 41.08         98 
 41.1          84 
 41.12         83 
 41.14         96 
 41.16         93 
 41.18         76 
 41.2          85 
 41.22         102 
 41.24         107 
 41.26         112 
 41.28         74 
 41.3          100 
 41.32         93 
 41.34         92 
 41.36         103 
 41.38         105 
 41.4          98 
 41.42         104 
 41.44         121 
 41.46         122 
 41.48         124 
 41.5          137 
 41.52         135 
 41.54         162 
 41.56         155 
 41.58         142 
 41.6          162 
 41.62         168 
 41.64         149 
 41.66         153 
 41.68         181 
 41.7          199 
 41.72         192 
 41.74         200 
 41.76         157 
 41.78         164 
 41.8          163 
 41.82         164 
 41.84         147 
 41.86         138 
 41.88         123 
 41.9          124 
 41.92         119 
 41.94         129 
 41.96         111 
 41.98         122 
 42            118 
 42.02         123 
 42.04         104 
 42.06         119 
 42.08         122 
 42.1          104 
 42.12         121 
 42.14         136 
 42.16         123 
 42.18         111 
 42.2          116 
 42.22         100 
 42.24         94 
 42.26         101 
 42.28         120 
 42.3          101 
 42.32         105 
 42.34         94 
 42.36         102 
 42.38         106 
 42.4          95 
 42.42         111 
 42.44         99 
 42.46         92 
 42.48         88 
 42.5          95 
 42.52         90 
 42.54         93 
 42.56         112 
 42.58         87 
 42.6          116 
 42.62         84 
 42.64         102 
 42.66         102 
 42.68         101 
 42.7          102 
 42.72         104 
 42.74         104 
 42.76         101 
 42.78         99 
 42.8          100 
 42.82         95 
 42.84         112 
 42.86         100 
 42.88         119 
 42.9          118 
 42.92         102 
 42.94         122 
 42.96         99 
 42.98         127 
 43            108 
 43.02         142 
 43.04         144 
 43.06         117 
 43.08         157 
 43.1          165 
 43.12         194 
 43.14         207 
 43.16         272 
 43.18         309 
 43.2          331 
 43.22         423 
 43.24         504 
 43.26         548 
 43.28         628 
 43.3          647 
 43.32         687 
 43.34         701 
 43.36         717 
 43.38         655 
 43.4          605 
 43.42         546 
 43.44         487 
 43.46         462 
 43.48         383 
 43.5          307 
 43.52         285 
 43.54         219 
 43.56         164 
 43.58         144 
 43.6          151 
 43.62         137 
 43.64         140 
 43.66         136 
 43.68         134 
 43.7          139 
 43.72         125 
 43.74         139 
 43.76         143 
 43.78         134 
 43.8          138 
 43.82         147 
 43.84         150 
 43.86         162 
 43.88         131 
 43.9          144 
 43.92         116 
 43.94         137 
 43.96         123 
 43.98         116 
 44            111 
 44.02         103 
 44.04         102 
 44.06         97 
 44.08         97 
 44.1          88 
 44.12         93 
 44.14         99 
 44.16         96 
 44.18         97 
 44.2          93 
 44.22         98 
 44.24         98 
 44.26         91 
 44.28         92 
 44.3          95 
 44.32         90 
 44.34         83 
 44.36         96 
 44.38         98 
 44.4          85 
 44.42         85 
 44.44         102 
 44.46         97 
 44.48         98 
 44.5          99 
 44.52         95 
 44.54         107 
 44.56         103 
 44.58         96 
 44.6          107 
 44.62         117 
 44.64         107 
 44.66         95 
 44.68         88 
 44.7          115 
 44.72         112 
 44.74         122 
 44.76         118 
 44.78         121 
 44.8          125 
 44.82         132 
 44.84         122 
 44.86         105 
 44.88         135 
 44.9          140 
 44.92         147 
 44.94         141 
 44.96         144 
 44.98         162 
 45            162 
 45.02         150 
 45.04         186 
 45.06         208 
 45.08         225 
 45.1          231 
 45.12         263 
 45.14         285 
 45.16         360 
 45.18         445 
 45.2          506 
 45.22         613 
 45.24         646 
 45.26         752 
 45.28         909 
 45.3          867 
 45.32         920 
 45.34         959 
 45.36         971 
 45.38         927 
 45.4          922 
 45.42         853 
 45.44         866 
 45.46         751 
 45.48         778 
 45.5          688 
 45.52         679 
 45.54         700 
 45.56         655 
 45.58         614 
 45.6          607 
 45.62         508 
 45.64         520 
 45.66         531 
 45.68         486 
 45.7          497 
 45.72         536 
 45.74         523 
 45.76         637 
 45.78         706 
 45.8          747 
 45.82         814 
 45.84         805 
 45.86         864 
 45.88         856 
 45.9          857 
 45.92         838 
 45.94         739 
 45.96         671 
 45.98         621 
 46            551 
 46.02         509 
 46.04         431 
 46.06         366 
 46.08         316 
 46.1          294 
 46.12         249 
 46.14         242 
 46.16         215 
 46.18         190 
 46.2          202 
 46.22         180 
 46.24         206 
 46.26         234 
 46.28         260 
 46.3          289 
 46.32         297 
 46.34         322 
 46.36         314 
 46.38         369 
 46.4          382 
 46.42         368 
 46.44         438 
 46.46         410 
 46.48         397 
 46.5          480 
 46.52         485 
 46.54         530 
 46.56         506 
 46.58         542 
 46.6          502 
 46.62         517 
 46.64         512 
 46.66         490 
 46.68         383 
 46.7          370 
 46.72         349 
 46.74         307 
 46.76         256 
 46.78         219 
 46.8          192 
 46.82         168 
 46.84         175 
 46.86         151 
 46.88         121 
 46.9          112 
 46.92         123 
 46.94         110 
 46.96         109 
 46.98         106 
 47            95 
 47.02         98 
 47.04         97 
 47.06         103 
 47.08         114 
 47.1          94 
 47.12         100 
 47.14         82 
 47.16         88 
 47.18         89 
 47.2          81 
 47.22         92 
 47.24         101 
 47.26         104 
 47.28         103 
 47.3          76 
 47.32         103 
 47.34         90 
 47.36         100 
 47.38         81 
 47.4          88 
 47.42         95 
 47.44         98 
 47.46         94 
 47.48         94 
 47.5          97 
 47.52         85 
 47.54         106 
 47.56         88 
 47.58         83 
 47.6          82 
 47.62         101 
 47.64         106 
 47.66         93 
 47.68         78 
 47.7          84 
 47.72         82 
 47.74         80 
 47.76         85 
 47.78         90 
 47.8          74 
 47.82         102 
 47.84         101 
 47.86         107 
 47.88         86 
 47.9          87 
 47.92         109 
 47.94         85 
 47.96         97 
 47.98         92 
 48            99 
 48.02         86 
 48.04         121 
 48.06         107 
 48.08         114 
 48.1          109 
 48.12         113 
 48.14         111 
 48.16         119 
 48.18         107 
 48.2          130 
 48.22         109 
 48.24         146 
 48.26         128 
 48.28         145 
 48.3          137 
 48.32         156 
 48.34         144 
 48.36         169 
 48.38         188 
 48.4          194 
 48.42         219 
 48.44         214 
 48.46         228 
 48.48         230 
 48.5          258 
 48.52         262 
 48.54         318 
 48.56         321 
 48.58         358 
 48.6          412 
 48.62         436 
 48.64         582 
 48.66         623 
 48.68         869 
 48.7          1054 
 48.72         1172 
 48.74         1573 
 48.76         1806 
 48.78         2077 
 48.8          2517 
 48.82         2834 
 48.84         3014 
 48.86         3175 
 48.88         3157 
 48.9          3106 
 48.92         2968 
 48.94         2747 
 48.96         2552 
 48.98         2403 
 49            2184 
 49.02         1954 
 49.04         1708 
 49.06         1675 
 49.08         1676 
 49.1          1688 
 49.12         1805 
 49.14         1837 
 49.16         1997 
 49.18         1940 
 49.2          1963 
 49.22         1862 
 49.24         1760 
 49.26         1688 
 49.28         1542 
 49.3          1363 
 49.32         1208 
 49.34         1113 
 49.36         907 
 49.38         756 
 49.4          692 
 49.42         558 
 49.44         454 
 49.46         396 
 49.48         340 
 49.5          324 
 49.52         254 
 49.54         260 
 49.56         247 
 49.58         234 
 49.6          218 
 49.62         236 
 49.64         195 
 49.66         195 
 49.68         233 
 49.7          165 
 49.72         169 
 49.74         171 
 49.76         148 
 49.78         120 
 49.8          153 
 49.82         145 
 49.84         125 
 49.86         118 
 49.88         131 
 49.9          111 
 49.92         110 
 49.94         109 
 49.96         120 
 49.98         101 
 50            119 
 50.02         110 
 50.04         87 
 50.06         98 
 50.08         120 
 50.1          101 
 50.12         105 
 50.14         105 
 50.16         104 
 50.18         102 
 50.2          84 
 50.22         89 
 50.24         94 
 50.26         98 
 50.28         95 
 50.3          117 
 50.32         102 
 50.34         105 
 50.36         106 
 50.38         99 
 50.4          93 
 50.42         82 
 50.44         100 
 50.46         96 
 50.48         95 
 50.5          93 
 50.52         98 
 50.54         105 
 50.56         113 
 50.58         98 
 50.6          97 
 50.62         92 
 50.64         101 
 50.66         126 
 50.68         102 
 50.7          116 
 50.72         112 
 50.74         152 
 50.76         138 
 50.78         170 
 50.8          157 
 50.82         180 
 50.84         185 
 50.86         183 
 50.88         200 
 50.9          235 
 50.92         236 
 50.94         309 
 50.96         372 
 50.98         428 
 51            514 
 51.02         541 
 51.04         645 
 51.06         720 
 51.08         771 
 51.1          783 
 51.12         877 
 51.14         830 
 51.16         915 
 51.18         858 
 51.2          873 
 51.22         833 
 51.24         784 
 51.26         763 
 51.28         744 
 51.3          750 
 51.32         668 
 51.34         622 
 51.36         579 
 51.38         594 
 51.4          539 
 51.42         554 
 51.44         643 
 51.46         654 
 51.48         764 
 51.5          943 
 51.52         1215 
 51.54         1387 
 51.56         1621 
 51.58         1962 
 51.6          2150 
 51.62         2340 
 51.64         2367 
 51.66         2345 
 51.68         2421 
 51.7          2412 
 51.72         2357 
 51.74         2256 
 51.76         2231 
 51.78         2028 
 51.8          1900 
 51.82         1802 
 51.84         1668 
 51.86         1491 
 51.88         1366 
 51.9          1297 
 51.92         1133 
 51.94         974 
 51.96         858 
 51.98         746 
 52            733 
 52.02         610 
 52.04         492 
 52.06         481 
 52.08         358 
 52.1          303 
 52.12         256 
 52.14         203 
 52.16         215 
 52.18         184 
 52.2          178 
 52.22         147 
 52.24         134 
 52.26         151 
 52.28         138 
 52.3          119 
 52.32         143 
 52.34         126 
 52.36         108 
 52.38         118 
 52.4          100 
 52.42         110 
 52.44         120 
 52.46         108 
 52.48         108 
 52.5          111 
 52.52         113 
 52.54         98 
 52.56         107 
 52.58         129 
 52.6          110 
 52.62         101 
 52.64         84 
 52.66         110 
 52.68         75 
 52.7          105 
 52.72         113 
 52.74         107 
 52.76         122 
 52.78         101 
 52.8          110 
 52.82         101 
 52.84         106 
 52.86         122 
 52.88         109 
 52.9          106 
 52.92         105 
 52.94         102 
 52.96         130 
 52.98         122 
 53            104 
 53.02         122 
 53.04         99 
 53.06         131 
 53.08         133 
 53.1          127 
 53.12         147 
 53.14         143 
 53.16         153 
 53.18         170 
 53.2          194 
 53.22         200 
 53.24         210 
 53.26         238 
 53.28         236 
 53.3          251 
 53.32         245 
 53.34         269 
 53.36         305 
 53.38         296 
 53.4          285 
 53.42         336 
 53.44         310 
 53.46         332 
 53.48         297 
 53.5          299 
 53.52         280 
 53.54         243 
 53.56         288 
 53.58         238 
 53.6          234 
 53.62         209 
 53.64         186 
 53.66         199 
 53.68         151 
 53.7          166 
 53.72         141 
 53.74         145 
 53.76         126 
 53.78         113 
 53.8          123 
 53.82         116 
 53.84         111 
 53.86         109 
 53.88         93 
 53.9          119 
 53.92         103 
 53.94         95 
 53.96         99 
 53.98         100 
 54            86 
 54.02         92 
 54.04         94 
 54.06         117 
 54.08         96 
 54.1          133 
 54.12         96 
 54.14         115 
 54.16         105 
 54.18         132 
 54.2          150 
 54.22         127 
 54.24         146 
 54.26         142 
 54.28         137 
 54.3          133 
 54.32         137 
 54.34         140 
 54.36         123 
 54.38         122 
 54.4          150 
 54.42         139 
 54.44         143 
 54.46         115 
 54.48         101 
 54.5          118 
 54.52         115 
 54.54         102 
 54.56         114 
 54.58         100 
 54.6          110 
 54.62         116 
 54.64         97 
 54.66         109 
 54.68         104 
 54.7          104 
 54.72         110 
 54.74         93 
 54.76         95 
 54.78         95 
 54.8          95 
 54.82         112 
 54.84         86 
 54.86         90 
 54.88         80 
 54.9          84 
 54.92         87 
 54.94         100 
 54.96         94 
 54.98         104 
 55            91 
 55.02         89 
 55.04         78 
 55.06         87 
 55.08         83 
 55.1          97 
 55.12         91 
 55.14         104 
 55.16         94 
 55.18         108 
 55.2          90 
 55.22         117 
 55.24         100 
 55.26         101 
 55.28         106 
 55.3          92 
 55.32         107 
 55.34         96 
 55.36         103 
 55.38         99 
 55.4          101 
 55.42         132 
 55.44         121 
 55.46         101 
 55.48         112 
 55.5          120 
 55.52         119 
 55.54         135 
 55.56         154 
 55.58         148 
 55.6          152 
 55.62         185 
 55.64         201 
 55.66         177 
 55.68         268 
 55.7          290 
 55.72         298 
 55.74         381 
 55.76         461 
 55.78         535 
 55.8          608 
 55.82         732 
 55.84         831 
 55.86         943 
 55.88         970 
 55.9          994 
 55.92         988 
 55.94         1044 
 55.96         1100 
 55.98         1180 
 56            1313 
 56.02         1358 
 56.04         1431 
 56.06         1607 
 56.08         1698 
 56.1          1740 
 56.12         1915 
 56.14         1886 
 56.16         1900 
 56.18         1974 
 56.2          1941 
 56.22         1855 
 56.24         1751 
 56.26         1596 
 56.28         1526 
 56.3          1394 
 56.32         1186 
 56.34         1092 
 56.36         918 
 56.38         833 
 56.4          741 
 56.42         650 
 56.44         503 
 56.46         444 
 56.48         329 
 56.5          319 
 56.52         248 
 56.54         238 
 56.56         219 
 56.58         177 
 56.6          149 
 56.62         146 
 56.64         150 
 56.66         145 
 56.68         146 
 56.7          122 
 56.72         134 
 56.74         136 
 56.76         128 
 56.78         146 
 56.8          124 
 56.82         135 
 56.84         122 
 56.86         127 
 56.88         138 
 56.9          111 
 56.92         84 
 56.94         135 
 56.96         113 
 56.98         120 
 57            127 
 57.02         121 
 57.04         104 
 57.06         92 
 57.08         94 
 57.1          105 
 57.12         85 
 57.14         100 
 57.16         97 
 57.18         109 
 57.2          92 
 57.22         102 
 57.24         105 
 57.26         71 
 57.28         89 
 57.3          98 
 57.32         81 
 57.34         98 
 57.36         100 
 57.38         107 
 57.4          74 
 57.42         93 
 57.44         90 
 57.46         97 
 57.48         99 
 57.5          108 
 57.52         110 
 57.54         90 
 57.56         79 
 57.58         88 
 57.6          90 
 57.62         83 
 57.64         92 
 57.66         87 
 57.68         112 
 57.7          97 
 57.72         85 
 57.74         90 
 57.76         116 
 57.78         106 
 57.8          113 
 57.82         84 
 57.84         109 
 57.86         114 
 57.88         130 
 57.9          133 
 57.92         139 
 57.94         142 
 57.96         152 
 57.98         157 
 58            159 
 58.02         164 
 58.04         194 
 58.06         206 
 58.08         262 
 58.1          260 
 58.12         326 
 58.14         375 
 58.16         352 
 58.18         389 
 58.2          381 
 58.22         402 
 58.24         467 
 58.26         447 
 58.28         450 
 58.3          493 
 58.32         482 
 58.34         486 
 58.36         449 
 58.38         444 
 58.4          427 
 58.42         403 
 58.44         455 
 58.46         445 
 58.48         441 
 58.5          463 
 58.52         459 
 58.54         510 
 58.56         560 
 58.58         624 
 58.6          746 
 58.62         920 
 58.64         1078 
 58.66         1212 
 58.68         1428 
 58.7          1535 
 58.72         1561 
 58.74         1735 
 58.76         1777 
 58.78         1835 
 58.8          1819 
 58.82         1866 
 58.84         1787 
 58.86         1885 
 58.88         1960 
 58.9          1975 
 58.92         2240 
 58.94         2325 
 58.96         2474 
 58.98         2704 
 59            2767 
 59.02         2966 
 59.04         3229 
 59.06         3362 
 59.08         3442 
 59.1          3487 
 59.12         3549 
 59.14         3528 
 59.16         3432 
 59.18         3249 
 59.2          3099 
 59.22         2934 
 59.24         2857 
 59.26         2456 
 59.28         2141 
 59.3          1903 
 59.32         1643 
 59.34         1521 
 59.36         1279 
 59.38         1142 
 59.4          982 
 59.42         848 
 59.44         727 
 59.46         600 
 59.48         460 
 59.5          398 
 59.52         339 
 59.54         287 
 59.56         265 
 59.58         236 
 59.6          268 
 59.62         183 
 59.64         197 
 59.66         191 
 59.68         175 
 59.7          162 
 59.72         162 
 59.74         127 
 59.76         133 
 59.78         131 
 59.8          135 
 59.82         125 
 59.84         117 
 59.86         141 
 59.88         121 
 59.9          120 
 59.92         132 
 59.94         129 
 59.96         111 
 59.98         122 
 60            129 
 60.02         149 
 60.04         140 
 60.06         124 
 60.08         129 
 60.1          145 
 60.12         152 
 60.14         115 
 60.16         124 
 60.18         143 
 60.2          164 
 60.22         182 
 60.24         182 
 60.26         208 
 60.28         213 
 60.3          215 
 60.32         221 
 60.34         225 
 60.36         242 
 60.38         256 
 60.4          272 
 60.42         297 
 60.44         302 
 60.46         291 
 60.48         284 
 60.5          308 
 60.52         310 
 60.54         318 
 60.56         350 
 60.58         349 
 60.6          436 
 60.62         447 
 60.64         527 
 60.66         594 
 60.68         640 
 60.7          729 
 60.72         716 
 60.74         789 
 60.76         837 
 60.78         803 
 60.8          866 
 60.82         732 
 60.84         834 
 60.86         783 
 60.88         746 
 60.9          696 
 60.92         672 
 60.94         564 
 60.96         536 
 60.98         486 
 61            397 
 61.02         362 
 61.04         337 
 61.06         293 
 61.08         250 
 61.1          241 
 61.12         186 
 61.14         175 
 61.16         144 
 61.18         144 
 61.2          131 
 61.22         123 
 61.24         128 
 61.26         116 
 61.28         94 
 61.3          109 
 61.32         94 
 61.34         85 
 61.36         110 
 61.38         101 
 61.4          92 
 61.42         115 
 61.44         96 
 61.46         108 
 61.48         98 
 61.5          100 
 61.52         90 
 61.54         79 
 61.56         103 
 61.58         87 
 61.6          92 
 61.62         93 
 61.64         119 
 61.66         103 
 61.68         105 
 61.7          108 
 61.72         110 
 61.74         91 
 61.76         102 
 61.78         92 
 61.8          112 
 61.82         97 
 61.84         95 
 61.86         86 
 61.88         101 
 61.9          95 
 61.92         109 
 61.94         85 
 61.96         108 
 61.98         79 
 62            103 
 62.02         102 
 62.04         85 
 62.06         96 
 62.08         101 
 62.1          91 
 62.12         97 
 62.14         91 
 62.16         94 
 62.18         85 
 62.2          85 
 62.22         88 
 62.24         78 
 62.26         81 
 62.28         92 
 62.3          102 
 62.32         88 
 62.34         81 
 62.36         86 
 62.38         75 
 62.4          87 
 62.42         67 
 62.44         86 
 62.46         81 
 62.48         92 
 62.5          88 
 62.52         75 
 62.54         93 
 62.56         91 
 62.58         90 
 62.6          88 
 62.62         82 
 62.64         101 
 62.66         74 
 62.68         85 
 62.7          96 
 62.72         98 
 62.74         94 
 62.76         101 
 62.78         102 
 62.8          98 
 62.82         105 
 62.84         82 
 62.86         120 
 62.88         101 
 62.9          108 
 62.92         113 
 62.94         123 
 62.96         134 
 62.98         122 
 63            149 
 63.02         156 
 63.04         159 
 63.06         178 
 63.08         202 
 63.1          217 
 63.12         242 
 63.14         251 
 63.16         336 
 63.18         393 
 63.2          450 
 63.22         526 
 63.24         578 
 63.26         584 
 63.28         748 
 63.3          694 
 63.32         769 
 63.34         712 
 63.36         710 
 63.38         672 
 63.4          644 
 63.42         627 
 63.44         554 
 63.46         550 
 63.48         487 
 63.5          462 
 63.52         441 
 63.54         370 
 63.56         315 
 63.58         308 
 63.6          258 
 63.62         213 
 63.64         194 
 63.66         167 
 63.68         158 
 63.7          153 
 63.72         121 
 63.74         124 
 63.76         120 
 63.78         114 
 63.8          125 
 63.82         107 
 63.84         113 
 63.86         106 
 63.88         116 
 63.9          96 
 63.92         119 
 63.94         104 
 63.96         73 
 63.98         79 
 64            113 
 64.02         118 
 64.04         85 
 64.06         70 
 64.08         96 
 64.1          84 
 64.12         110 
 64.14         99 
 64.16         99 
 64.18         93 
 64.2          114 
 64.22         98 
 64.24         116 
 64.26         122 
 64.28         116 
 64.3          127 
 64.32         100 
 64.34         113 
 64.36         129 
 64.38         141 
 64.4          137 
 64.42         141 
 64.44         143 
 64.46         185 
 64.48         193 
 64.5          174 
 64.52         182 
 64.54         226 
 64.56         228 
 64.58         213 
 64.6          304 
 64.62         297 
 64.64         321 
 64.66         311 
 64.68         307 
 64.7          323 
 64.72         362 
 64.74         377 
 64.76         370 
 64.78         386 
 64.8          379 
 64.82         397 
 64.84         382 
 64.86         404 
 64.88         410 
 64.9          430 
 64.92         440 
 64.94         440 
 64.96         464 
 64.98         526 
 65            505 
 65.02         517 
 65.04         507 
 65.06         573 
 65.08         602 
 65.1          625 
 65.12         696 
 65.14         697 
 65.16         769 
 65.18         857 
 65.2          966 
 65.22         1023 
 65.24         1141 
 65.26         1178 
 65.28         1292 
 65.3          1276 
 65.32         1275 
 65.34         1321 
 65.36         1276 
 65.38         1274 
 65.4          1168 
 65.42         1153 
 65.44         1078 
 65.46         1130 
 65.48         1097 
 65.5          1074 
 65.52         1110 
 65.54         1075 
 65.56         1098 
 65.58         1075 
 65.6          1201 
 65.62         1222 
 65.64         1215 
 65.66         1201 
 65.68         1205 
 65.7          1203 
 65.72         1227 
 65.74         1138 
 65.76         1137 
 65.78         1093 
 65.8          1003 
 65.82         931 
 65.84         867 
 65.86         802 
 65.88         724 
 65.9          638 
 65.92         604 
 65.94         559 
 65.96         504 
 65.98         455 
 66            365 
 66.02         341 
 66.04         316 
 66.06         264 
 66.08         209 
 66.1          205 
 66.12         176 
 66.14         183 
 66.16         187 
 66.18         161 
 66.2          161 
 66.22         137 
 66.24         124 
 66.26         140 
 66.28         129 
 66.3          120 
 66.32         120 
 66.34         99 
 66.36         114 
 66.38         99 
 66.4          103 
 66.42         113 
 66.44         107 
 66.46         101 
 66.48         99 
 66.5          99 
 66.52         100 
 66.54         89 
 66.56         123 
 66.58         103 
 66.6          132 
 66.62         114 
 66.64         106 
 66.66         104 
 66.68         119 
 66.7          120 
 66.72         138 
 66.74         115 
 66.76         137 
 66.78         134 
 66.8          132 
 66.82         121 
 66.84         139 
 66.86         139 
 66.88         163 
 66.9          138 
 66.92         163 
 66.94         151 
 66.96         154 
 66.98         128 
 67            169 
 67.02         133 
 67.04         166 
 67.06         157 
 67.08         175 
 67.1          151 
 67.12         147 
 67.14         182 
 67.16         172 
 67.18         139 
 67.2          167 
 67.22         177 
 67.24         186 
 67.26         193 
 67.28         179 
 67.3          166 
 67.32         167 
 67.34         167 
 67.36         158 
 67.38         170 
 67.4          168 
 67.42         168 
 67.44         170 
 67.46         193 
 67.48         203 
 67.5          216 
 67.52         207 
 67.54         257 
 67.56         291 
 67.58         304 
 67.6          317 
 67.62         383 
 67.64         404 
 67.66         423 
 67.68         466 
 67.7          476 
 67.72         513 
 67.74         539 
 67.76         532 
 67.78         582 
 67.8          652 
 67.82         661 
 67.84         722 
 67.86         766 
 67.88         853 
 67.9          850 
 67.92         938 
 67.94         1029 
 67.96         1021 
 67.98         995 
 68            1024 
 68.02         1041 
 68.04         1014 
 68.06         1001 
 68.08         980 
 68.1          973 
 68.12         948 
 68.14         832 
 68.16         823 
 68.18         731 
 68.2          675 
 68.22         640 
 68.24         543 
 68.26         561 
 68.28         466 
 68.3          411 
 68.32         414 
 68.34         337 
 68.36         308 
 68.38         266 
 68.4          244 
 68.42         232 
 68.44         188 
 68.46         210 
 68.48         212 
 68.5          164 
 68.52         156 
 68.54         165 
 68.56         150 
 68.58         179 
 68.6          177 
 68.62         214 
 68.64         182 
 68.66         189 
 68.68         185 
 68.7          224 
 68.72         230 
 68.74         256 
 68.76         276 
 68.78         271 
 68.8          330 
 68.82         380 
 68.84         391 
 68.86         429 
 68.88         487 
 68.9          464 
 68.92         552 
 68.94         567 
 68.96         658 
 68.98         633 
 69            680 
 69.02         735 
 69.04         714 
 69.06         757 
 69.08         736 
 69.1          730 
 69.12         707 
 69.14         706 
 69.16         748 
 69.18         672 
 69.2          650 
 69.22         606 
 69.24         566 
 69.26         531 
 69.28         468 
 69.3          505 
 69.32         503 
 69.34         436 
 69.36         416 
 69.38         430 
 69.4          389 
 69.42         447 
 69.44         426 
 69.46         495 
 69.48         471 
 69.5          556 
 69.52         577 
 69.54         598 
 69.56         673 
 69.58         654 
 69.6          720 
 69.62         715 
 69.64         722 
 69.66         773 
 69.68         722 
 69.7          666 
 69.72         695 
 69.74         600 
 69.76         583 
 69.78         551 
 69.8          500 
 69.82         465 
 69.84         452 
 69.86         443 
 69.88         395 
 69.9          357 
 69.92         323 
 69.94         281 
 69.96         247 
 69.98         207 
 70            201 
 70.02         169 
 70.04         137 
 70.06         155 
 70.08         153 
 70.1          162 
 70.12         124 
 70.14         138 
 70.16         128 
 70.18         104 
 70.2          120 
 70.22         132 
 70.24         123 
 70.26         153 
 70.28         120 
 70.3          98 
 70.32         117 
 70.34         90 
 70.36         121 
 70.38         109 
 70.4          94 
 70.42         95 
 70.44         90 
 70.46         102 
 70.48         91 
 70.5          103 
 70.52         79 
 70.54         88 
 70.56         78 
 70.58         74 
 70.6          85 
 70.62         91 
 70.64         82 
 70.66         94 
 70.68         81 
 70.7          93 
 70.72         94 
 70.74         103 
 70.76         92 
 70.78         82 
 70.8          85 
 70.82         90 
 70.84         118 
 70.86         84 
 70.88         82 
 70.9          96 
 70.92         88 
 70.94         77 
 70.96         88 
 70.98         73 
 71            90 
 71.02         107 
 71.04         105 
 71.06         102 
 71.08         96 
 71.1          107 
 71.12         90 
 71.14         102 
 71.16         100 
 71.18         102 
 71.2          134 
 71.22         121 
 71.24         138 
 71.26         154 
 71.28         172 
 71.3          200 
 71.32         217 
 71.34         221 
 71.36         247 
 71.38         297 
 71.4          297 
 71.42         346 
 71.44         403 
 71.46         360 
 71.48         425 
 71.5          439 
 71.52         409 
 71.54         402 
 71.56         378 
 71.58         377 
 71.6          370 
 71.62         394 
 71.64         342 
 71.66         346 
 71.68         305 
 71.7          320 
 71.72         292 
 71.74         276 
 71.76         275 
 71.78         248 
 71.8          209 
 71.82         244 
 71.84         211 
 71.86         216 
 71.88         206 
 71.9          199 
 71.92         202 
 71.94         210 
 71.96         227 
 71.98         248 
 72            253 
 72.02         281 
 72.04         328 
 72.06         365 
 72.08         390 
 72.1          445 
 72.12         476 
 72.14         475 
 72.16         545 
 72.18         531 
 72.2          610 
 72.22         625 
 72.24         569 
 72.26         577 
 72.28         589 
 72.3          629 
 72.32         609 
 72.34         648 
 72.36         578 
 72.38         596 
 72.4          582 
 72.42         588 
 72.44         562 
 72.46         541 
 72.48         546 
 72.5          560 
 72.52         554 
 72.54         543 
 72.56         522 
 72.58         484 
 72.6          488 
 72.62         484 
 72.64         459 
 72.66         447 
 72.68         468 
 72.7          428 
 72.72         394 
 72.74         425 
 72.76         378 
 72.78         385 
 72.8          337 
 72.82         346 
 72.84         337 
 72.86         317 
 72.88         334 
 72.9          287 
 72.92         329 
 72.94         243 
 72.96         263 
 72.98         339 
 73            297 
 73.02         295 
 73.04         323 
 73.06         331 
 73.08         362 
 73.1          373 
 73.12         440 
 73.14         421 
 73.16         504 
 73.18         495 
 73.2          580 
 73.22         560 
 73.24         571 
 73.26         664 
 73.28         653 
 73.3          694 
 73.32         703 
 73.34         699 
 73.36         716 
 73.38         715 
 73.4          718 
 73.42         705 
 73.44         722 
 73.46         702 
 73.48         663 
 73.5          644 
 73.52         661 
 73.54         607 
 73.56         640 
 73.58         538 
 73.6          544 
 73.62         587 
 73.64         630 
 73.66         601 
 73.68         595 
 73.7          614 
 73.72         668 
 73.74         639 
 73.76         708 
 73.78         703 
 73.8          736 
 73.82         719 
 73.84         677 
 73.86         712 
 73.88         717 
 73.9          678 
 73.92         582 
 73.93999      604 
 73.96         585 
 73.98         549 
 74            532 
 74.02         510 
 74.04         479 
 74.06         449 
 74.08         405 
 74.1          373 
 74.12         363 
 74.14         327 
 74.16         282 
 74.18         302 
 74.2          252 
 74.22         209 
 74.24         221 
 74.26         209 
 74.28         199 
 74.3          164 
 74.32         149 
 74.34         149 
 74.36         159 
 74.38         121 
 74.4          128 
 74.42         137 
 74.43999      128 
 74.46         134 
 74.48         111 
 74.5          111 
 74.52         103 
 74.54         108 
 74.56         100 
 74.58         95 
 74.6          103 
 74.62         99 
 74.64         96 
 74.66         103 
 74.68         88 
 74.7          103 
 74.72         90 
 74.74         99 
 74.76         97 
 74.78         95 
 74.8          103 
 74.82         83 
 74.84         83 
 74.86         95 
 74.88         75 
 74.9          85 
 74.92         89 
 74.93999      85 
 74.96         104 
 74.98         96 
 75            92 
