F900schnell250-P6  Original Data
 3151 
 12            487 
 12.02         444 
 12.04         485 
 12.06         461 
 12.08         491 
 12.1          441 
 12.12         508 
 12.14         474 
 12.16         498 
 12.18         488 
 12.2          492 
 12.22         495 
 12.24         532 
 12.26         533 
 12.28         467 
 12.3          538 
 12.32         479 
 12.34         538 
 12.36         494 
 12.38         478 
 12.4          474 
 12.42         496 
 12.44         409 
 12.46         514 
 12.48         477 
 12.5          508 
 12.52         484 
 12.54         507 
 12.56         518 
 12.58         458 
 12.6          490 
 12.62         463 
 12.64         506 
 12.66         496 
 12.68         505 
 12.7          464 
 12.72         509 
 12.74         476 
 12.76         498 
 12.78         495 
 12.8          456 
 12.82         473 
 12.84         506 
 12.86         460 
 12.88         489 
 12.9          505 
 12.92         460 
 12.94         535 
 12.96         426 
 12.98         510 
 13            470 
 13.02         496 
 13.04         458 
 13.06         488 
 13.08         465 
 13.1          487 
 13.12         446 
 13.14         446 
 13.16         472 
 13.18         425 
 13.2          477 
 13.22         473 
 13.24         444 
 13.26         457 
 13.28         467 
 13.3          458 
 13.32         445 
 13.34         448 
 13.36         497 
 13.38         476 
 13.4          467 
 13.42         486 
 13.44         425 
 13.46         496 
 13.48         436 
 13.5          436 
 13.52         422 
 13.54         457 
 13.56         394 
 13.58         464 
 13.6          429 
 13.62         462 
 13.64         427 
 13.66         434 
 13.68         430 
 13.7          408 
 13.72         423 
 13.74         380 
 13.76         381 
 13.78         410 
 13.8          402 
 13.82         384 
 13.84         437 
 13.86         382 
 13.88         387 
 13.9          393 
 13.92         426 
 13.94         406 
 13.96         410 
 13.98         410 
 14            381 
 14.02         415 
 14.04         348 
 14.06         418 
 14.08         340 
 14.1          371 
 14.12         352 
 14.14         353 
 14.16         383 
 14.18         397 
 14.2          373 
 14.22         381 
 14.24         368 
 14.26         354 
 14.28         345 
 14.3          369 
 14.32         365 
 14.34         378 
 14.36         382 
 14.38         372 
 14.4          396 
 14.42         406 
 14.44         373 
 14.46         403 
 14.48         439 
 14.5          468 
 14.52         521 
 14.54         506 
 14.56         534 
 14.58         555 
 14.6          577 
 14.62         629 
 14.64         620 
 14.66         706 
 14.68         800 
 14.7          960 
 14.72         992 
 14.74         1097 
 14.76         1246 
 14.78         1321 
 14.8          1555 
 14.82         1714 
 14.84         1996 
 14.86         2236 
 14.88         2617 
 14.9          2644 
 14.92         2882 
 14.94         3174 
 14.96         3251 
 14.98         3162 
 15            3030 
 15.02         2915 
 15.04         2639 
 15.06         2371 
 15.08         1954 
 15.1          1611 
 15.12         1271 
 15.14         901 
 15.16         724 
 15.18         524 
 15.2          418 
 15.22         365 
 15.24         344 
 15.26         312 
 15.28         327 
 15.3          314 
 15.32         296 
 15.34         305 
 15.36         283 
 15.38         262 
 15.4          242 
 15.42         278 
 15.44         247 
 15.46         263 
 15.48         256 
 15.5          236 
 15.52         256 
 15.54         280 
 15.56         262 
 15.58         264 
 15.6          270 
 15.62         240 
 15.64         241 
 15.66         242 
 15.68         245 
 15.7          223 
 15.72         220 
 15.74         246 
 15.76         227 
 15.78         228 
 15.8          232 
 15.82         241 
 15.84         210 
 15.86         219 
 15.88         231 
 15.9          239 
 15.92         203 
 15.94         223 
 15.96         210 
 15.98         226 
 16            213 
 16.02         237 
 16.04         209 
 16.06         215 
 16.08         194 
 16.1          222 
 16.12         224 
 16.14         211 
 16.16         199 
 16.18         183 
 16.2          227 
 16.22         212 
 16.24         226 
 16.26         242 
 16.28         216 
 16.3          233 
 16.32         223 
 16.34         205 
 16.36         192 
 16.38         200 
 16.4          215 
 16.42         193 
 16.44         219 
 16.46         212 
 16.48         216 
 16.5          236 
 16.52         202 
 16.54         219 
 16.56         207 
 16.58         205 
 16.6          203 
 16.62         190 
 16.64         177 
 16.66         201 
 16.68         191 
 16.7          203 
 16.72         187 
 16.74         200 
 16.76         209 
 16.78         163 
 16.8          185 
 16.82         164 
 16.84         193 
 16.86         191 
 16.88         190 
 16.9          204 
 16.92         185 
 16.94         207 
 16.96         183 
 16.98         209 
 17            192 
 17.02         183 
 17.04         190 
 17.06         210 
 17.08         202 
 17.1          220 
 17.12         221 
 17.14         221 
 17.16         218 
 17.18         202 
 17.2          203 
 17.22         220 
 17.24         209 
 17.26         236 
 17.28         230 
 17.3          205 
 17.32         202 
 17.34         211 
 17.36         211 
 17.38         199 
 17.4          211 
 17.42         195 
 17.44         215 
 17.46         214 
 17.48         194 
 17.5          193 
 17.52         180 
 17.54         192 
 17.56         176 
 17.58         174 
 17.6          188 
 17.62         164 
 17.64         161 
 17.66         174 
 17.68         186 
 17.7          188 
 17.72         167 
 17.74         189 
 17.76         178 
 17.78         180 
 17.8          177 
 17.82         177 
 17.84         189 
 17.86         164 
 17.88         181 
 17.9          196 
 17.92         199 
 17.94         184 
 17.96         181 
 17.98         182 
 18            189 
 18.02         187 
 18.04         172 
 18.06         173 
 18.08         181 
 18.1          229 
 18.12         203 
 18.14         192 
 18.16         173 
 18.18         217 
 18.2          223 
 18.22         204 
 18.24         189 
 18.26         167 
 18.28         169 
 18.3          173 
 18.32         177 
 18.34         150 
 18.36         159 
 18.38         160 
 18.4          137 
 18.42         168 
 18.44         162 
 18.46         158 
 18.48         144 
 18.5          184 
 18.52         164 
 18.54         176 
 18.56         175 
 18.58         156 
 18.6          144 
 18.62         161 
 18.64         130 
 18.66         173 
 18.68         141 
 18.7          170 
 18.72         142 
 18.74         155 
 18.76         159 
 18.78         153 
 18.8          154 
 18.82         150 
 18.84         162 
 18.86         179 
 18.88         153 
 18.9          181 
 18.92         183 
 18.94         154 
 18.96         148 
 18.98         172 
 19            160 
 19.02         153 
 19.04         163 
 19.06         158 
 19.08         150 
 19.1          169 
 19.12         174 
 19.14         167 
 19.16         150 
 19.18         175 
 19.2          153 
 19.22         139 
 19.24         145 
 19.26         166 
 19.28         165 
 19.3          151 
 19.32         134 
 19.34         157 
 19.36         143 
 19.38         154 
 19.4          150 
 19.42         118 
 19.44         142 
 19.46         159 
 19.48         148 
 19.5          174 
 19.52         163 
 19.54         144 
 19.56         156 
 19.58         147 
 19.6          146 
 19.62         152 
 19.64         151 
 19.66         129 
 19.68         146 
 19.7          154 
 19.72         135 
 19.74         152 
 19.76         163 
 19.78         152 
 19.8          151 
 19.82         139 
 19.84         152 
 19.86         163 
 19.88         151 
 19.9          167 
 19.92         172 
 19.94         152 
 19.96         159 
 19.98         182 
 20            156 
 20.02         163 
 20.04         160 
 20.06         173 
 20.08         174 
 20.1          188 
 20.12         191 
 20.14         198 
 20.16         207 
 20.18         219 
 20.2          169 
 20.22         217 
 20.24         188 
 20.26         220 
 20.28         234 
 20.3          237 
 20.32         260 
 20.34         239 
 20.36         263 
 20.38         279 
 20.4          251 
 20.42         259 
 20.44         264 
 20.46         279 
 20.48         274 
 20.5          310 
 20.52         256 
 20.54         283 
 20.56         304 
 20.58         319 
 20.6          328 
 20.62         372 
 20.64         415 
 20.66         429 
 20.68         498 
 20.7          489 
 20.72         604 
 20.74         673 
 20.76         729 
 20.78         863 
 20.8          965 
 20.82         1228 
 20.84         1300 
 20.86         1611 
 20.88         1871 
 20.9          2207 
 20.92         2609 
 20.94         3099 
 20.96         3669 
 20.98         4078 
 21            5146 
 21.02         5564 
 21.04         6772 
 21.06         7313 
 21.08         8712 
 21.1          9002 
 21.12         10397 
 21.14         10857 
 21.16         10948 
 21.18         11116 
 21.2          10862 
 21.22         10383 
 21.24         9762 
 21.26         8950 
 21.28         8448 
 21.3          7767 
 21.32         7687 
 21.34         7278 
 21.36         7364 
 21.38         7182 
 21.4          7342 
 21.42         7293 
 21.44         6913 
 21.46         6479 
 21.48         5873 
 21.5          5015 
 21.52         4292 
 21.54         3570 
 21.56         2747 
 21.58         2302 
 21.6          1623 
 21.62         1347 
 21.64         982 
 21.66         885 
 21.68         715 
 21.7          709 
 21.72         555 
 21.74         537 
 21.76         512 
 21.78         467 
 21.8          398 
 21.82         348 
 21.84         306 
 21.86         250 
 21.88         282 
 21.9          232 
 21.92         207 
 21.94         222 
 21.96         210 
 21.98         181 
 22            173 
 22.02         186 
 22.04         167 
 22.06         179 
 22.08         151 
 22.1          170 
 22.12         154 
 22.14         172 
 22.16         133 
 22.18         182 
 22.2          175 
 22.22         152 
 22.24         142 
 22.26         164 
 22.28         142 
 22.3          148 
 22.32         125 
 22.34         131 
 22.36         134 
 22.38         131 
 22.4          139 
 22.42         146 
 22.44         134 
 22.46         157 
 22.48         158 
 22.5          147 
 22.52         139 
 22.54         136 
 22.56         139 
 22.58         123 
 22.6          143 
 22.62         135 
 22.64         142 
 22.66         134 
 22.68         157 
 22.7          135 
 22.72         166 
 22.74         152 
 22.76         131 
 22.78         145 
 22.8          122 
 22.82         139 
 22.84         141 
 22.86         134 
 22.88         131 
 22.9          156 
 22.92         159 
 22.94         121 
 22.96         125 
 22.98         148 
 23            144 
 23.02         143 
 23.04         134 
 23.06         131 
 23.08         134 
 23.1          174 
 23.12         139 
 23.14         145 
 23.16         160 
 23.18         158 
 23.2          161 
 23.22         158 
 23.24         147 
 23.26         154 
 23.28         153 
 23.3          170 
 23.32         140 
 23.34         145 
 23.36         161 
 23.38         142 
 23.4          168 
 23.42         142 
 23.44         130 
 23.46         140 
 23.48         133 
 23.5          155 
 23.52         144 
 23.54         169 
 23.56         151 
 23.58         154 
 23.6          147 
 23.62         135 
 23.64         147 
 23.66         130 
 23.68         155 
 23.7          138 
 23.72         134 
 23.74         137 
 23.76         126 
 23.78         130 
 23.8          143 
 23.82         127 
 23.84         125 
 23.86         134 
 23.88         153 
 23.9          158 
 23.92         143 
 23.94         158 
 23.96         139 
 23.98         146 
 24            141 
 24.02         152 
 24.04         165 
 24.06         154 
 24.08         152 
 24.1          159 
 24.12         143 
 24.14         160 
 24.16         142 
 24.18         140 
 24.2          120 
 24.22         146 
 24.24         151 
 24.26         148 
 24.28         160 
 24.3          146 
 24.32         157 
 24.34         147 
 24.36         176 
 24.38         199 
 24.4          198 
 24.42         161 
 24.44         216 
 24.46         228 
 24.48         244 
 24.5          293 
 24.52         254 
 24.54         322 
 24.56         329 
 24.58         394 
 24.6          443 
 24.62         516 
 24.64         599 
 24.66         656 
 24.68         760 
 24.7          837 
 24.72         1052 
 24.74         1244 
 24.76         1414 
 24.78         1684 
 24.8          2004 
 24.82         2518 
 24.84         2885 
 24.86         3645 
 24.88         4171 
 24.9          5237 
 24.92         5977 
 24.94         7404 
 24.96         8241 
 24.98         9731 
 25            10772 
 25.02         12175 
 25.04         12898 
 25.06         13131 
 25.08         13294 
 25.1          12476 
 25.12         11419 
 25.14         10255 
 25.16         8287 
 25.18         7164 
 25.2          5057 
 25.22         4041 
 25.24         2551 
 25.26         1967 
 25.28         1299 
 25.3          1057 
 25.32         722 
 25.34         569 
 25.36         489 
 25.38         411 
 25.4          403 
 25.42         365 
 25.44         336 
 25.46         306 
 25.48         318 
 25.5          317 
 25.52         290 
 25.54         349 
 25.56         332 
 25.58         312 
 25.6          400 
 25.62         407 
 25.64         415 
 25.66         468 
 25.68         568 
 25.7          610 
 25.72         673 
 25.74         763 
 25.76         776 
 25.78         825 
 25.8          929 
 25.82         956 
 25.84         984 
 25.86         930 
 25.88         972 
 25.9          947 
 25.92         857 
 25.94         745 
 25.96         671 
 25.98         610 
 26            469 
 26.02         407 
 26.04         354 
 26.06         338 
 26.08         280 
 26.1          233 
 26.12         255 
 26.14         221 
 26.16         222 
 26.18         243 
 26.2          260 
 26.22         260 
 26.24         247 
 26.26         266 
 26.28         263 
 26.3          221 
 26.32         234 
 26.34         254 
 26.36         220 
 26.38         203 
 26.4          191 
 26.42         171 
 26.44         146 
 26.46         144 
 26.48         126 
 26.5          140 
 26.52         123 
 26.54         136 
 26.56         132 
 26.58         125 
 26.6          109 
 26.62         133 
 26.64         119 
 26.66         96 
 26.68         125 
 26.7          126 
 26.72         108 
 26.74         89 
 26.76         131 
 26.78         107 
 26.8          135 
 26.82         131 
 26.84         118 
 26.86         122 
 26.88         127 
 26.9          123 
 26.92         130 
 26.94         145 
 26.96         117 
 26.98         114 
 27            124 
 27.02         122 
 27.04         125 
 27.06         109 
 27.08         106 
 27.1          113 
 27.12         117 
 27.14         128 
 27.16         115 
 27.18         119 
 27.2          101 
 27.22         104 
 27.24         131 
 27.26         108 
 27.28         104 
 27.3          125 
 27.32         121 
 27.34         122 
 27.36         120 
 27.38         120 
 27.4          139 
 27.42         123 
 27.44         109 
 27.46         118 
 27.48         100 
 27.5          124 
 27.52         110 
 27.54         114 
 27.56         140 
 27.58         111 
 27.6          122 
 27.62         106 
 27.64         131 
 27.66         141 
 27.68         140 
 27.7          120 
 27.72         118 
 27.74         125 
 27.76         114 
 27.78         121 
 27.8          130 
 27.82         119 
 27.84         117 
 27.86         128 
 27.88         135 
 27.9          120 
 27.92         129 
 27.94         118 
 27.96         136 
 27.98         102 
 28            131 
 28.02         129 
 28.04         115 
 28.06         140 
 28.08         122 
 28.1          141 
 28.12         113 
 28.14         135 
 28.16         157 
 28.18         132 
 28.2          125 
 28.22         132 
 28.24         136 
 28.26         119 
 28.28         145 
 28.3          122 
 28.32         129 
 28.34         127 
 28.36         112 
 28.38         135 
 28.4          120 
 28.42         123 
 28.44         122 
 28.46         137 
 28.48         121 
 28.5          122 
 28.52         123 
 28.54         107 
 28.56         116 
 28.58         119 
 28.6          111 
 28.62         126 
 28.64         131 
 28.66         103 
 28.68         100 
 28.7          107 
 28.72         102 
 28.74         111 
 28.76         112 
 28.78         104 
 28.8          113 
 28.82         117 
 28.84         117 
 28.86         104 
 28.88         109 
 28.9          108 
 28.92         102 
 28.94         118 
 28.96         107 
 28.98         94 
 29            102 
 29.02         100 
 29.04         99 
 29.06         108 
 29.08         99 
 29.1          99 
 29.12         99 
 29.14         95 
 29.16         107 
 29.18         133 
 29.2          116 
 29.22         133 
 29.24         118 
 29.26         110 
 29.28         95 
 29.3          115 
 29.32         115 
 29.34         109 
 29.36         109 
 29.38         121 
 29.4          107 
 29.42         121 
 29.44         95 
 29.46         110 
 29.48         121 
 29.5          128 
 29.52         118 
 29.54         102 
 29.56         129 
 29.58         110 
 29.6          121 
 29.62         134 
 29.64         119 
 29.66         122 
 29.68         141 
 29.7          147 
 29.72         150 
 29.74         155 
 29.76         135 
 29.78         182 
 29.8          153 
 29.82         203 
 29.84         219 
 29.86         233 
 29.88         236 
 29.9          317 
 29.92         310 
 29.94         379 
 29.96         447 
 29.98         462 
 30            542 
 30.02         603 
 30.04         775 
 30.06         907 
 30.08         1092 
 30.1          1334 
 30.12         1628 
 30.14         2049 
 30.16         2318 
 30.18         3063 
 30.2          3478 
 30.22         4332 
 30.24         4827 
 30.26         5843 
 30.28         6409 
 30.3          7030 
 30.32         7511 
 30.34         7575 
 30.36         7519 
 30.38         6854 
 30.4          6268 
 30.42         5431 
 30.44         4323 
 30.46         3713 
 30.48         2587 
 30.5          2176 
 30.52         1393 
 30.54         1169 
 30.56         760 
 30.58         566 
 30.6          459 
 30.62         393 
 30.64         330 
 30.66         285 
 30.68         253 
 30.7          235 
 30.72         203 
 30.74         182 
 30.76         176 
 30.78         169 
 30.8          185 
 30.82         187 
 30.84         123 
 30.86         179 
 30.88         163 
 30.9          160 
 30.92         164 
 30.94         147 
 30.96         148 
 30.98         156 
 31            151 
 31.02         137 
 31.04         136 
 31.06         143 
 31.08         152 
 31.1          134 
 31.12         138 
 31.14         139 
 31.16         115 
 31.18         121 
 31.2          127 
 31.22         113 
 31.24         120 
 31.26         124 
 31.28         110 
 31.3          120 
 31.32         132 
 31.34         141 
 31.36         114 
 31.38         132 
 31.4          142 
 31.42         112 
 31.44         117 
 31.46         135 
 31.48         97 
 31.5          108 
 31.52         125 
 31.54         101 
 31.56         123 
 31.58         98 
 31.6          122 
 31.62         110 
 31.64         105 
 31.66         108 
 31.68         102 
 31.7          123 
 31.72         124 
 31.74         108 
 31.76         114 
 31.78         108 
 31.8          92 
 31.82         111 
 31.84         104 
 31.86         109 
 31.88         92 
 31.9          91 
 31.92         103 
 31.94         100 
 31.96         100 
 31.98         109 
 32            99 
 32.02         100 
 32.04         99 
 32.06         82 
 32.08         103 
 32.1          92 
 32.12         88 
 32.14         100 
 32.16         91 
 32.18         87 
 32.2          92 
 32.22         112 
 32.24         93 
 32.26         76 
 32.28         82 
 32.3          85 
 32.32         102 
 32.34         90 
 32.36         103 
 32.38         102 
 32.4          95 
 32.42         95 
 32.44         94 
 32.46         101 
 32.48         83 
 32.5          91 
 32.52         100 
 32.54         103 
 32.56         109 
 32.58         112 
 32.6          103 
 32.62         112 
 32.64         116 
 32.66         101 
 32.68         133 
 32.7          120 
 32.72         134 
 32.74         128 
 32.76         121 
 32.78         120 
 32.8          120 
 32.82         148 
 32.84         145 
 32.86         170 
 32.88         135 
 32.9          190 
 32.92         178 
 32.94         200 
 32.96         261 
 32.98         233 
 33            319 
 33.02         309 
 33.04         389 
 33.06         392 
 33.08         512 
 33.1          594 
 33.12         632 
 33.14         806 
 33.16         894 
 33.18         1163 
 33.2          1276 
 33.22         1526 
 33.24         1680 
 33.26         1946 
 33.28         2190 
 33.3          2386 
 33.32         2382 
 33.34         2384 
 33.36         2463 
 33.38         2364 
 33.4          2291 
 33.42         1948 
 33.44         1764 
 33.46         1591 
 33.48         1317 
 33.5          1123 
 33.52         1039 
 33.54         890 
 33.56         868 
 33.58         907 
 33.6          973 
 33.62         1015 
 33.64         1240 
 33.66         1425 
 33.68         1808 
 33.7          2042 
 33.72         2515 
 33.74         3015 
 33.76         3466 
 33.78         3990 
 33.8          4367 
 33.82         4662 
 33.84         5054 
 33.86         5108 
 33.88         5072 
 33.9          4607 
 33.92         4478 
 33.94         3864 
 33.96         3403 
 33.98         2670 
 34            2303 
 34.02         1658 
 34.04         1436 
 34.06         1045 
 34.08         805 
 34.1          576 
 34.12         425 
 34.14         377 
 34.16         294 
 34.18         249 
 34.2          212 
 34.22         170 
 34.24         175 
 34.26         169 
 34.28         173 
 34.3          152 
 34.32         144 
 34.34         150 
 34.36         120 
 34.38         98 
 34.4          131 
 34.42         117 
 34.44         122 
 34.46         82 
 34.48         122 
 34.5          126 
 34.52         92 
 34.54         109 
 34.56         117 
 34.58         95 
 34.6          106 
 34.62         105 
 34.64         115 
 34.66         92 
 34.68         110 
 34.7          105 
 34.72         69 
 34.74         77 
 34.76         89 
 34.78         98 
 34.8          105 
 34.82         101 
 34.84         103 
 34.86         101 
 34.88         101 
 34.9          109 
 34.92         86 
 34.94         95 
 34.96         113 
 34.98         95 
 35            97 
 35.02         110 
 35.04         104 
 35.06         105 
 35.08         90 
 35.1          104 
 35.12         98 
 35.14         112 
 35.16         97 
 35.18         115 
 35.2          112 
 35.22         99 
 35.24         102 
 35.26         132 
 35.28         106 
 35.3          111 
 35.32         134 
 35.34         94 
 35.36         110 
 35.38         130 
 35.4          130 
 35.42         131 
 35.44         127 
 35.46         139 
 35.48         116 
 35.5          133 
 35.52         114 
 35.54         90 
 35.56         127 
 35.58         126 
 35.6          144 
 35.62         112 
 35.64         119 
 35.66         138 
 35.68         131 
 35.7          149 
 35.72         174 
 35.74         142 
 35.76         178 
 35.78         174 
 35.8          158 
 35.82         141 
 35.84         170 
 35.86         141 
 35.88         143 
 35.9          139 
 35.92         149 
 35.94         132 
 35.96         120 
 35.98         122 
 36            119 
 36.02         113 
 36.04         123 
 36.06         114 
 36.08         116 
 36.1          92 
 36.12         89 
 36.14         91 
 36.16         98 
 36.18         73 
 36.2          80 
 36.22         107 
 36.24         72 
 36.26         99 
 36.28         94 
 36.3          94 
 36.32         95 
 36.34         71 
 36.36         79 
 36.38         104 
 36.4          79 
 36.42         83 
 36.44         77 
 36.46         104 
 36.48         104 
 36.5          80 
 36.52         106 
 36.54         94 
 36.56         82 
 36.58         101 
 36.6          94 
 36.62         93 
 36.64         107 
 36.66         106 
 36.68         103 
 36.7          114 
 36.72         111 
 36.74         106 
 36.76         131 
 36.78         138 
 36.8          143 
 36.82         120 
 36.84         140 
 36.86         141 
 36.88         148 
 36.9          189 
 36.92         195 
 36.94         200 
 36.96         197 
 36.98         221 
 37            213 
 37.02         222 
 37.04         257 
 37.06         243 
 37.08         236 
 37.1          293 
 37.12         315 
 37.14         312 
 37.16         345 
 37.18         380 
 37.2          426 
 37.22         477 
 37.24         617 
 37.26         676 
 37.28         820 
 37.3          909 
 37.32         1261 
 37.34         1457 
 37.36         1679 
 37.38         2064 
 37.4          2340 
 37.42         2725 
 37.44         3133 
 37.46         3431 
 37.48         3525 
 37.5          3974 
 37.52         3987 
 37.54         4124 
 37.56         4067 
 37.58         3990 
 37.6          3985 
 37.62         3743 
 37.64         3608 
 37.66         3419 
 37.68         3063 
 37.7          2850 
 37.72         2434 
 37.74         2189 
 37.76         1820 
 37.78         1524 
 37.8          1227 
 37.82         1055 
 37.84         832 
 37.86         631 
 37.88         539 
 37.9          434 
 37.92         378 
 37.94         344 
 37.96         305 
 37.98         287 
 38            297 
 38.02         279 
 38.04         261 
 38.06         229 
 38.08         256 
 38.1          193 
 38.12         186 
 38.14         181 
 38.16         183 
 38.18         156 
 38.2          136 
 38.22         142 
 38.24         118 
 38.26         119 
 38.28         114 
 38.3          116 
 38.32         125 
 38.34         112 
 38.36         104 
 38.38         110 
 38.4          91 
 38.42         86 
 38.44         120 
 38.46         107 
 38.48         97 
 38.5          87 
 38.52         78 
 38.54         101 
 38.56         96 
 38.58         106 
 38.6          88 
 38.62         97 
 38.64         89 
 38.66         73 
 38.68         90 
 38.7          92 
 38.72         92 
 38.74         101 
 38.76         88 
 38.78         93 
 38.8          92 
 38.82         104 
 38.84         84 
 38.86         80 
 38.88         100 
 38.9          105 
 38.92         112 
 38.94         86 
 38.96         91 
 38.98         101 
 39            100 
 39.02         111 
 39.04         115 
 39.06         114 
 39.08         118 
 39.1          99 
 39.12         138 
 39.14         113 
 39.16         121 
 39.18         130 
 39.2          141 
 39.22         146 
 39.24         137 
 39.26         149 
 39.28         130 
 39.3          151 
 39.32         162 
 39.34         152 
 39.36         148 
 39.38         118 
 39.4          177 
 39.42         140 
 39.44         138 
 39.46         127 
 39.48         145 
 39.5          136 
 39.52         125 
 39.54         142 
 39.56         156 
 39.58         138 
 39.6          144 
 39.62         146 
 39.64         138 
 39.66         114 
 39.68         141 
 39.7          135 
 39.72         150 
 39.74         130 
 39.76         163 
 39.78         158 
 39.8          196 
 39.82         203 
 39.84         210 
 39.86         218 
 39.88         216 
 39.9          264 
 39.92         248 
 39.94         263 
 39.96         255 
 39.98         253 
 40            267 
 40.02         229 
 40.04         221 
 40.06         193 
 40.08         168 
 40.1          155 
 40.12         145 
 40.14         158 
 40.16         129 
 40.18         118 
 40.2          119 
 40.22         122 
 40.24         102 
 40.26         86 
 40.28         87 
 40.3          95 
 40.32         92 
 40.34         90 
 40.36         95 
 40.38         94 
 40.4          92 
 40.42         75 
 40.44         92 
 40.46         98 
 40.48         87 
 40.5          99 
 40.52         94 
 40.54         78 
 40.56         88 
 40.58         81 
 40.6          78 
 40.62         60 
 40.64         79 
 40.66         89 
 40.68         90 
 40.7          98 
 40.72         93 
 40.74         97 
 40.76         96 
 40.78         93 
 40.8          86 
 40.82         74 
 40.84         94 
 40.86         74 
 40.88         103 
 40.9          97 
 40.92         103 
 40.94         94 
 40.96         81 
 40.98         66 
 41            94 
 41.02         88 
 41.04         88 
 41.06         69 
 41.08         80 
 41.1          79 
 41.12         79 
 41.14         77 
 41.16         71 
 41.18         87 
 41.2          93 
 41.22         106 
 41.24         86 
 41.26         105 
 41.28         100 
 41.3          80 
 41.32         94 
 41.34         103 
 41.36         109 
 41.38         104 
 41.4          124 
 41.42         113 
 41.44         128 
 41.46         124 
 41.48         116 
 41.5          130 
 41.52         124 
 41.54         139 
 41.56         137 
 41.58         146 
 41.6          143 
 41.62         188 
 41.64         163 
 41.66         136 
 41.68         168 
 41.7          153 
 41.72         128 
 41.74         145 
 41.76         146 
 41.78         127 
 41.8          125 
 41.82         123 
 41.84         97 
 41.86         110 
 41.88         90 
 41.9          102 
 41.92         83 
 41.94         102 
 41.96         99 
 41.98         86 
 42            91 
 42.02         92 
 42.04         70 
 42.06         81 
 42.08         105 
 42.1          99 
 42.12         78 
 42.14         88 
 42.16         70 
 42.18         98 
 42.2          72 
 42.22         90 
 42.24         84 
 42.26         90 
 42.28         81 
 42.3          91 
 42.32         86 
 42.34         84 
 42.36         77 
 42.38         92 
 42.4          108 
 42.42         86 
 42.44         91 
 42.46         92 
 42.48         101 
 42.5          98 
 42.52         76 
 42.54         72 
 42.56         79 
 42.58         84 
 42.6          80 
 42.62         76 
 42.64         100 
 42.66         82 
 42.68         93 
 42.7          99 
 42.72         110 
 42.74         98 
 42.76         94 
 42.78         97 
 42.8          107 
 42.82         134 
 42.84         104 
 42.86         130 
 42.88         112 
 42.9          131 
 42.92         140 
 42.94         156 
 42.96         175 
 42.98         173 
 43            222 
 43.02         261 
 43.04         281 
 43.06         294 
 43.08         381 
 43.1          387 
 43.12         460 
 43.14         495 
 43.16         549 
 43.18         509 
 43.2          594 
 43.22         545 
 43.24         551 
 43.26         487 
 43.28         509 
 43.3          438 
 43.32         435 
 43.34         370 
 43.36         360 
 43.38         275 
 43.4          254 
 43.42         188 
 43.44         182 
 43.46         167 
 43.48         137 
 43.5          122 
 43.52         109 
 43.54         124 
 43.56         118 
 43.58         113 
 43.6          107 
 43.62         134 
 43.64         98 
 43.66         107 
 43.68         94 
 43.7          96 
 43.72         118 
 43.74         111 
 43.76         96 
 43.78         110 
 43.8          118 
 43.82         118 
 43.84         124 
 43.86         102 
 43.88         105 
 43.9          100 
 43.92         99 
 43.94         107 
 43.96         93 
 43.98         89 
 44            93 
 44.02         81 
 44.04         95 
 44.06         90 
 44.08         92 
 44.1          98 
 44.12         94 
 44.14         86 
 44.16         82 
 44.18         88 
 44.2          83 
 44.22         76 
 44.24         91 
 44.26         87 
 44.28         99 
 44.3          93 
 44.32         89 
 44.34         83 
 44.36         74 
 44.38         107 
 44.4          95 
 44.42         85 
 44.44         76 
 44.46         80 
 44.48         75 
 44.5          87 
 44.52         95 
 44.54         88 
 44.56         110 
 44.58         90 
 44.6          94 
 44.62         101 
 44.64         103 
 44.66         108 
 44.68         90 
 44.7          96 
 44.72         97 
 44.74         123 
 44.76         104 
 44.78         115 
 44.8          124 
 44.82         120 
 44.84         130 
 44.86         144 
 44.88         175 
 44.9          190 
 44.92         162 
 44.94         201 
 44.96         254 
 44.98         282 
 45            360 
 45.02         363 
 45.04         438 
 45.06         495 
 45.08         508 
 45.1          594 
 45.12         672 
 45.14         717 
 45.16         798 
 45.18         803 
 45.2          781 
 45.22         756 
 45.24         812 
 45.26         727 
 45.28         711 
 45.3          664 
 45.32         695 
 45.34         637 
 45.36         598 
 45.38         577 
 45.4          564 
 45.42         512 
 45.44         529 
 45.46         462 
 45.48         480 
 45.5          483 
 45.52         448 
 45.54         466 
 45.56         418 
 45.58         459 
 45.6          464 
 45.62         500 
 45.64         476 
 45.66         528 
 45.68         540 
 45.7          559 
 45.72         601 
 45.74         587 
 45.76         628 
 45.78         648 
 45.8          670 
 45.82         623 
 45.84         617 
 45.86         565 
 45.88         554 
 45.9          521 
 45.92         493 
 45.94         402 
 45.96         349 
 45.98         321 
 46            321 
 46.02         247 
 46.04         225 
 46.06         223 
 46.08         231 
 46.1          209 
 46.12         213 
 46.14         225 
 46.16         224 
 46.18         220 
 46.2          255 
 46.22         283 
 46.24         302 
 46.26         292 
 46.28         338 
 46.3          320 
 46.32         331 
 46.34         330 
 46.36         291 
 46.38         347 
 46.4          349 
 46.42         357 
 46.44         327 
 46.46         365 
 46.48         441 
 46.5          395 
 46.52         391 
 46.54         395 
 46.56         395 
 46.58         377 
 46.6          359 
 46.62         337 
 46.64         336 
 46.66         300 
 46.68         262 
 46.7          236 
 46.72         238 
 46.74         226 
 46.76         175 
 46.78         129 
 46.8          130 
 46.82         123 
 46.84         107 
 46.86         92 
 46.88         86 
 46.9          116 
 46.92         85 
 46.94         92 
 46.96         80 
 46.98         86 
 47            93 
 47.02         91 
 47.04         99 
 47.06         84 
 47.08         97 
 47.1          96 
 47.12         88 
 47.14         80 
 47.16         91 
 47.18         80 
 47.2          71 
 47.22         94 
 47.24         72 
 47.26         66 
 47.28         78 
 47.3          78 
 47.32         85 
 47.34         95 
 47.36         71 
 47.38         86 
 47.4          76 
 47.42         84 
 47.44         76 
 47.46         84 
 47.48         90 
 47.5          82 
 47.52         71 
 47.54         103 
 47.56         73 
 47.58         80 
 47.6          90 
 47.62         85 
 47.64         72 
 47.66         94 
 47.68         106 
 47.7          77 
 47.72         81 
 47.74         78 
 47.76         92 
 47.78         81 
 47.8          54 
 47.82         90 
 47.84         86 
 47.86         97 
 47.88         102 
 47.9          72 
 47.92         92 
 47.94         91 
 47.96         94 
 47.98         106 
 48            96 
 48.02         95 
 48.04         95 
 48.06         104 
 48.08         98 
 48.1          113 
 48.12         102 
 48.14         110 
 48.16         131 
 48.18         146 
 48.2          150 
 48.22         163 
 48.24         142 
 48.26         153 
 48.28         160 
 48.3          181 
 48.32         202 
 48.34         179 
 48.36         219 
 48.38         260 
 48.4          258 
 48.42         308 
 48.44         320 
 48.46         359 
 48.48         434 
 48.5          523 
 48.52         573 
 48.54         736 
 48.56         883 
 48.58         982 
 48.6          1253 
 48.62         1413 
 48.64         1755 
 48.66         1843 
 48.68         2006 
 48.7          2210 
 48.72         2507 
 48.74         2527 
 48.76         2522 
 48.78         2561 
 48.8          2488 
 48.82         2239 
 48.84         2203 
 48.86         1983 
 48.88         1893 
 48.9          1595 
 48.92         1531 
 48.94         1440 
 48.96         1291 
 48.98         1265 
 49            1300 
 49.02         1257 
 49.04         1295 
 49.06         1366 
 49.08         1362 
 49.1          1423 
 49.12         1493 
 49.14         1427 
 49.16         1422 
 49.18         1439 
 49.2          1270 
 49.22         1194 
 49.24         1136 
 49.26         989 
 49.28         885 
 49.3          777 
 49.32         710 
 49.34         508 
 49.36         487 
 49.38         382 
 49.4          320 
 49.42         275 
 49.44         227 
 49.46         211 
 49.48         187 
 49.5          173 
 49.52         138 
 49.54         133 
 49.56         118 
 49.58         117 
 49.6          106 
 49.62         91 
 49.64         106 
 49.66         92 
 49.68         130 
 49.7          96 
 49.72         94 
 49.74         103 
 49.76         112 
 49.78         109 
 49.8          93 
 49.82         94 
 49.84         88 
 49.86         92 
 49.88         92 
 49.9          100 
 49.92         90 
 49.94         76 
 49.96         92 
 49.98         89 
 50            79 
 50.02         79 
 50.04         86 
 50.06         82 
 50.08         92 
 50.1          116 
 50.12         93 
 50.14         91 
 50.16         100 
 50.18         96 
 50.2          78 
 50.22         74 
 50.24         90 
 50.26         81 
 50.28         78 
 50.3          72 
 50.32         93 
 50.34         90 
 50.36         92 
 50.38         111 
 50.4          76 
 50.42         97 
 50.44         81 
 50.46         82 
 50.48         111 
 50.5          85 
 50.52         69 
 50.54         85 
 50.56         101 
 50.58         110 
 50.6          125 
 50.62         95 
 50.64         113 
 50.66         114 
 50.68         133 
 50.7          151 
 50.72         124 
 50.74         183 
 50.76         190 
 50.78         214 
 50.8          232 
 50.82         283 
 50.84         315 
 50.86         332 
 50.88         405 
 50.9          473 
 50.92         503 
 50.94         603 
 50.96         655 
 50.98         703 
 51            764 
 51.02         716 
 51.04         789 
 51.06         782 
 51.08         732 
 51.1          791 
 51.12         762 
 51.14         733 
 51.16         664 
 51.18         592 
 51.2          604 
 51.22         551 
 51.24         522 
 51.26         458 
 51.28         499 
 51.3          492 
 51.32         505 
 51.34         610 
 51.36         629 
 51.38         703 
 51.4          768 
 51.42         942 
 51.44         1092 
 51.46         1309 
 51.48         1490 
 51.5          1588 
 51.52         1712 
 51.54         1820 
 51.56         1930 
 51.58         2023 
 51.6          2068 
 51.62         2017 
 51.64         1950 
 51.66         1763 
 51.68         1680 
 51.7          1622 
 51.72         1536 
 51.74         1439 
 51.76         1351 
 51.78         1209 
 51.8          1156 
 51.82         1023 
 51.84         1009 
 51.86         879 
 51.88         771 
 51.9          718 
 51.92         656 
 51.94         607 
 51.96         574 
 51.98         475 
 52            386 
 52.02         378 
 52.04         329 
 52.06         253 
 52.08         189 
 52.1          192 
 52.12         183 
 52.14         153 
 52.16         117 
 52.18         136 
 52.2          139 
 52.22         109 
 52.24         92 
 52.26         110 
 52.28         106 
 52.3          90 
 52.32         99 
 52.34         95 
 52.36         91 
 52.38         92 
 52.4          87 
 52.42         97 
 52.44         93 
 52.46         95 
 52.48         99 
 52.5          88 
 52.52         86 
 52.54         78 
 52.56         98 
 52.58         75 
 52.6          87 
 52.62         87 
 52.64         78 
 52.66         104 
 52.68         90 
 52.7          88 
 52.72         76 
 52.74         91 
 52.76         80 
 52.78         101 
 52.8          99 
 52.82         95 
 52.84         82 
 52.86         87 
 52.88         130 
 52.9          126 
 52.92         101 
 52.94         124 
 52.96         125 
 52.98         168 
 53            173 
 53.02         173 
 53.04         178 
 53.06         187 
 53.08         209 
 53.1          223 
 53.12         246 
 53.14         229 
 53.16         247 
 53.18         265 
 53.2          303 
 53.22         267 
 53.24         290 
 53.26         317 
 53.28         262 
 53.3          287 
 53.32         250 
 53.34         217 
 53.36         284 
 53.38         282 
 53.4          216 
 53.42         216 
 53.44         185 
 53.46         161 
 53.48         179 
 53.5          184 
 53.52         136 
 53.54         129 
 53.56         136 
 53.58         115 
 53.6          125 
 53.62         103 
 53.64         120 
 53.66         111 
 53.68         89 
 53.7          113 
 53.72         106 
 53.74         92 
 53.76         95 
 53.78         91 
 53.8          82 
 53.82         86 
 53.84         91 
 53.86         80 
 53.88         88 
 53.9          86 
 53.92         69 
 53.94         78 
 53.96         84 
 53.98         78 
 54            69 
 54.02         60 
 54.04         95 
 54.06         69 
 54.08         83 
 54.1          94 
 54.12         64 
 54.14         88 
 54.16         88 
 54.18         86 
 54.2          102 
 54.22         78 
 54.24         115 
 54.26         80 
 54.28         87 
 54.3          82 
 54.32         88 
 54.34         95 
 54.36         72 
 54.38         83 
 54.4          87 
 54.42         86 
 54.44         78 
 54.46         83 
 54.48         96 
 54.5          88 
 54.52         67 
 54.54         74 
 54.56         69 
 54.58         85 
 54.6          63 
 54.62         72 
 54.64         79 
 54.66         79 
 54.68         61 
 54.7          62 
 54.72         84 
 54.74         74 
 54.76         76 
 54.78         78 
 54.8          77 
 54.82         68 
 54.84         71 
 54.86         66 
 54.88         85 
 54.9          72 
 54.92         82 
 54.94         77 
 54.96         64 
 54.98         72 
 55            98 
 55.02         92 
 55.04         73 
 55.06         87 
 55.08         89 
 55.1          92 
 55.12         85 
 55.14         66 
 55.16         95 
 55.18         95 
 55.2          97 
 55.22         99 
 55.24         101 
 55.26         85 
 55.28         96 
 55.3          104 
 55.32         93 
 55.34         97 
 55.36         93 
 55.38         105 
 55.4          103 
 55.42         124 
 55.44         124 
 55.46         144 
 55.48         150 
 55.5          156 
 55.52         193 
 55.54         214 
 55.56         258 
 55.58         239 
 55.6          313 
 55.62         302 
 55.64         410 
 55.66         436 
 55.68         522 
 55.7          609 
 55.72         673 
 55.74         769 
 55.76         813 
 55.78         921 
 55.8          996 
 55.82         1077 
 55.84         1169 
 55.86         1253 
 55.88         1275 
 55.9          1398 
 55.92         1445 
 55.94         1572 
 55.96         1643 
 55.98         1719 
 56            1830 
 56.02         1745 
 56.04         1649 
 56.06         1750 
 56.08         1700 
 56.1          1613 
 56.12         1372 
 56.14         1333 
 56.16         1232 
 56.18         1162 
 56.2          1024 
 56.22         951 
 56.24         791 
 56.26         712 
 56.28         631 
 56.3          528 
 56.32         474 
 56.34         410 
 56.36         378 
 56.38         272 
 56.4          269 
 56.42         208 
 56.44         193 
 56.46         164 
 56.48         155 
 56.5          162 
 56.52         137 
 56.54         140 
 56.56         125 
 56.58         135 
 56.6          124 
 56.62         130 
 56.64         106 
 56.66         93 
 56.68         113 
 56.7          111 
 56.72         104 
 56.74         108 
 56.76         90 
 56.78         99 
 56.8          114 
 56.82         106 
 56.84         102 
 56.86         99 
 56.88         99 
 56.9          109 
 56.92         83 
 56.94         93 
 56.96         106 
 56.98         83 
 57            80 
 57.02         77 
 57.04         80 
 57.06         80 
 57.08         67 
 57.1          88 
 57.12         88 
 57.14         87 
 57.16         72 
 57.18         78 
 57.2          87 
 57.22         77 
 57.24         83 
 57.26         83 
 57.28         76 
 57.3          70 
 57.32         77 
 57.34         80 
 57.36         78 
 57.38         84 
 57.4          74 
 57.42         84 
 57.44         78 
 57.46         92 
 57.48         81 
 57.5          83 
 57.52         89 
 57.54         86 
 57.56         100 
 57.58         73 
 57.6          60 
 57.62         84 
 57.64         80 
 57.66         97 
 57.68         109 
 57.7          105 
 57.72         88 
 57.74         102 
 57.76         138 
 57.78         117 
 57.8          142 
 57.82         151 
 57.84         149 
 57.86         181 
 57.88         190 
 57.9          209 
 57.92         238 
 57.94         268 
 57.96         292 
 57.98         290 
 58            334 
 58.02         325 
 58.04         325 
 58.06         363 
 58.08         390 
 58.1          389 
 58.12         392 
 58.14         387 
 58.16         412 
 58.18         329 
 58.2          375 
 58.22         359 
 58.24         371 
 58.26         338 
 58.28         329 
 58.3          349 
 58.32         356 
 58.34         318 
 58.36         351 
 58.38         352 
 58.4          402 
 58.42         431 
 58.44         462 
 58.46         495 
 58.48         575 
 58.5          671 
 58.52         806 
 58.54         931 
 58.56         1011 
 58.58         1054 
 58.6          1174 
 58.62         1278 
 58.64         1359 
 58.66         1412 
 58.68         1530 
 58.7          1549 
 58.72         1483 
 58.74         1550 
 58.76         1564 
 58.78         1581 
 58.8          1551 
 58.82         1611 
 58.84         1694 
 58.86         1696 
 58.88         1834 
 58.9          1965 
 58.92         2022 
 58.94         2116 
 58.96         2292 
 58.98         2404 
 59            2493 
 59.02         2634 
 59.04         2628 
 59.06         2661 
 59.08         2644 
 59.1          2636 
 59.12         2564 
 59.14         2452 
 59.16         2355 
 59.18         2228 
 59.2          2039 
 59.22         1886 
 59.24         1905 
 59.26         1560 
 59.28         1414 
 59.3          1224 
 59.32         1073 
 59.34         968 
 59.36         812 
 59.38         680 
 59.4          590 
 59.42         478 
 59.44         419 
 59.46         372 
 59.48         310 
 59.5          256 
 59.52         229 
 59.54         203 
 59.56         196 
 59.58         181 
 59.6          173 
 59.62         144 
 59.64         126 
 59.66         130 
 59.68         135 
 59.7          117 
 59.72         118 
 59.74         141 
 59.76         122 
 59.78         107 
 59.8          117 
 59.82         105 
 59.84         124 
 59.86         116 
 59.88         118 
 59.9          118 
 59.92         115 
 59.94         115 
 59.96         101 
 59.98         118 
 60            123 
 60.02         125 
 60.04         104 
 60.06         140 
 60.08         168 
 60.1          151 
 60.12         130 
 60.14         178 
 60.16         166 
 60.18         170 
 60.2          204 
 60.22         180 
 60.24         219 
 60.26         194 
 60.28         212 
 60.3          254 
 60.32         219 
 60.34         244 
 60.36         268 
 60.38         229 
 60.4          267 
 60.42         262 
 60.44         231 
 60.46         262 
 60.48         281 
 60.5          321 
 60.52         338 
 60.54         397 
 60.56         422 
 60.58         399 
 60.6          484 
 60.62         551 
 60.64         551 
 60.66         605 
 60.68         587 
 60.7          638 
 60.72         630 
 60.74         640 
 60.76         655 
 60.78         653 
 60.8          607 
 60.82         655 
 60.84         589 
 60.86         564 
 60.88         538 
 60.9          458 
 60.92         443 
 60.94         394 
 60.96         335 
 60.98         332 
 61            277 
 61.02         275 
 61.04         228 
 61.06         219 
 61.08         181 
 61.1          159 
 61.12         178 
 61.14         128 
 61.16         129 
 61.18         115 
 61.2          95 
 61.22         102 
 61.24         92 
 61.26         86 
 61.28         102 
 61.3          82 
 61.32         98 
 61.34         77 
 61.36         81 
 61.38         90 
 61.4          104 
 61.42         92 
 61.44         78 
 61.46         93 
 61.48         103 
 61.5          87 
 61.52         89 
 61.54         85 
 61.56         93 
 61.58         105 
 61.6          82 
 61.62         100 
 61.64         101 
 61.66         79 
 61.68         97 
 61.7          94 
 61.72         111 
 61.74         95 
 61.76         80 
 61.78         78 
 61.8          82 
 61.82         75 
 61.84         84 
 61.86         80 
 61.88         85 
 61.9          77 
 61.92         82 
 61.94         84 
 61.96         90 
 61.98         83 
 62            58 
 62.02         72 
 62.04         68 
 62.06         74 
 62.08         82 
 62.1          59 
 62.12         68 
 62.14         78 
 62.16         71 
 62.18         77 
 62.2          71 
 62.22         70 
 62.24         75 
 62.26         60 
 62.28         71 
 62.3          78 
 62.32         77 
 62.34         65 
 62.36         83 
 62.38         83 
 62.4          83 
 62.42         75 
 62.44         65 
 62.46         64 
 62.48         91 
 62.5          76 
 62.52         71 
 62.54         94 
 62.56         77 
 62.58         86 
 62.6          86 
 62.62         73 
 62.64         80 
 62.66         70 
 62.68         86 
 62.7          80 
 62.72         71 
 62.74         97 
 62.76         82 
 62.78         118 
 62.8          105 
 62.82         96 
 62.84         109 
 62.86         98 
 62.88         113 
 62.9          139 
 62.92         139 
 62.94         138 
 62.96         147 
 62.98         179 
 63            203 
 63.02         242 
 63.04         235 
 63.06         281 
 63.08         351 
 63.1          389 
 63.12         429 
 63.14         504 
 63.16         548 
 63.18         559 
 63.2          582 
 63.22         572 
 63.24         583 
 63.26         651 
 63.28         624 
 63.3          590 
 63.32         559 
 63.34         504 
 63.36         523 
 63.38         444 
 63.4          407 
 63.42         402 
 63.44         330 
 63.46         302 
 63.48         280 
 63.5          224 
 63.52         204 
 63.54         186 
 63.56         180 
 63.58         120 
 63.6          123 
 63.62         119 
 63.64         118 
 63.66         110 
 63.68         107 
 63.7          104 
 63.72         97 
 63.74         97 
 63.76         77 
 63.78         92 
 63.8          92 
 63.82         87 
 63.84         89 
 63.86         96 
 63.88         83 
 63.9          81 
 63.92         74 
 63.94         101 
 63.96         90 
 63.98         105 
 64            81 
 64.02         85 
 64.04         87 
 64.06         78 
 64.08         109 
 64.1          95 
 64.12         86 
 64.14         110 
 64.16         104 
 64.18         115 
 64.2          142 
 64.22         133 
 64.24         122 
 64.26         162 
 64.28         166 
 64.3          143 
 64.32         166 
 64.34         206 
 64.36         190 
 64.38         252 
 64.4          214 
 64.42         257 
 64.44         291 
 64.46         254 
 64.48         319 
 64.5          269 
 64.52         303 
 64.54         331 
 64.56         348 
 64.58         335 
 64.6          304 
 64.62         315 
 64.64         313 
 64.66         314 
 64.68         311 
 64.7          301 
 64.72         332 
 64.74         279 
 64.76         306 
 64.78         314 
 64.8          328 
 64.82         337 
 64.84         340 
 64.86         363 
 64.88         397 
 64.9          394 
 64.92         444 
 64.94         476 
 64.96         586 
 64.98         565 
 65            625 
 65.02         705 
 65.04         734 
 65.06         831 
 65.08         945 
 65.1          970 
 65.12         1040 
 65.14         1069 
 65.16         1144 
 65.18         1177 
 65.2          1186 
 65.22         1198 
 65.24         1158 
 65.26         1141 
 65.28         1141 
 65.3          1064 
 65.32         1024 
 65.34         1008 
 65.36         980 
 65.38         951 
 65.4          877 
 65.42         862 
 65.44         852 
 65.46         856 
 65.48         874 
 65.5          890 
 65.52         947 
 65.54         933 
 65.56         900 
 65.58         1008 
 65.6          966 
 65.62         985 
 65.64         1019 
 65.66         955 
 65.68         910 
 65.7          959 
 65.72         874 
 65.74         832 
 65.76         719 
 65.78         758 
 65.8          702 
 65.82         624 
 65.84         583 
 65.86         553 
 65.88         454 
 65.9          428 
 65.92         420 
 65.94         332 
 65.96         330 
 65.98         253 
 66            273 
 66.02         216 
 66.04         231 
 66.06         197 
 66.08         186 
 66.1          161 
 66.12         140 
 66.14         133 
 66.16         136 
 66.18         138 
 66.2          147 
 66.22         124 
 66.24         127 
 66.26         122 
 66.28         113 
 66.3          113 
 66.32         118 
 66.34         106 
 66.36         83 
 66.38         101 
 66.4          108 
 66.42         104 
 66.44         93 
 66.46         86 
 66.48         86 
 66.5          100 
 66.52         94 
 66.54         101 
 66.56         99 
 66.58         97 
 66.6          83 
 66.62         96 
 66.64         98 
 66.66         96 
 66.68         85 
 66.7          102 
 66.72         104 
 66.74         90 
 66.76         103 
 66.78         87 
 66.8          116 
 66.82         106 
 66.84         112 
 66.86         116 
 66.88         94 
 66.9          104 
 66.92         107 
 66.94         105 
 66.96         129 
 66.98         101 
 67            100 
 67.02         103 
 67.04         129 
 67.06         118 
 67.08         114 
 67.1          119 
 67.12         133 
 67.14         97 
 67.16         103 
 67.18         121 
 67.2          120 
 67.22         112 
 67.24         151 
 67.26         125 
 67.28         101 
 67.3          119 
 67.32         119 
 67.34         125 
 67.36         135 
 67.38         156 
 67.4          144 
 67.42         156 
 67.44         179 
 67.46         209 
 67.48         213 
 67.5          252 
 67.52         260 
 67.54         291 
 67.56         288 
 67.58         345 
 67.6          376 
 67.62         378 
 67.64         387 
 67.66         410 
 67.68         438 
 67.7          437 
 67.72         440 
 67.74         517 
 67.76         518 
 67.78         528 
 67.8          616 
 67.82         611 
 67.84         664 
 67.86         711 
 67.88         734 
 67.9          790 
 67.92         749 
 67.94         780 
 67.96         798 
 67.98         791 
 68            804 
 68.02         830 
 68.04         783 
 68.06         821 
 68.08         750 
 68.1          742 
 68.12         689 
 68.14         684 
 68.16         592 
 68.18         598 
 68.2          555 
 68.22         491 
 68.24         421 
 68.26         402 
 68.28         397 
 68.3          368 
 68.32         307 
 68.34         327 
 68.36         273 
 68.38         247 
 68.4          237 
 68.42         237 
 68.44         227 
 68.46         187 
 68.48         204 
 68.5          253 
 68.52         230 
 68.54         247 
 68.56         222 
 68.58         277 
 68.6          276 
 68.62         290 
 68.64         341 
 68.66         365 
 68.68         375 
 68.7          395 
 68.72         455 
 68.74         479 
 68.76         529 
 68.78         571 
 68.8          611 
 68.82         572 
 68.84         636 
 68.86         631 
 68.88         622 
 68.9          644 
 68.92         720 
 68.94         646 
 68.96         626 
 68.98         615 
 69            626 
 69.02         585 
 69.04         581 
 69.06         505 
 69.08         531 
 69.1          429 
 69.12         450 
 69.14         443 
 69.16         427 
 69.18         374 
 69.2          369 
 69.22         351 
 69.24         323 
 69.26         307 
 69.28         314 
 69.3          344 
 69.32         367 
 69.34         388 
 69.36         375 
 69.38         423 
 69.4          473 
 69.42         487 
 69.44         506 
 69.46         541 
 69.48         620 
 69.5          610 
 69.52         611 
 69.54         626 
 69.56         610 
 69.58         620 
 69.6          585 
 69.62         559 
 69.64         512 
 69.66         502 
 69.68         481 
 69.7          496 
 69.72         388 
 69.74         400 
 69.76         385 
 69.78         319 
 69.8          318 
 69.82         282 
 69.84         246 
 69.86         237 
 69.88         173 
 69.9          184 
 69.92         166 
 69.94         147 
 69.96         140 
 69.98         150 
 70            139 
 70.02         116 
 70.04         112 
 70.06         125 
 70.08         104 
 70.1          112 
 70.12         123 
 70.14         97 
 70.16         100 
 70.18         90 
 70.2          98 
 70.22         102 
 70.24         95 
 70.26         97 
 70.28         74 
 70.3          91 
 70.32         86 
 70.34         99 
 70.36         81 
 70.38         82 
 70.4          82 
 70.42         77 
 70.44         81 
 70.46         81 
 70.48         84 
 70.5          90 
 70.52         87 
 70.54         73 
 70.56         71 
 70.58         72 
 70.6          81 
 70.62         78 
 70.64         74 
 70.66         82 
 70.68         78 
 70.7          62 
 70.72         82 
 70.74         67 
 70.76         67 
 70.78         74 
 70.8          71 
 70.82         62 
 70.84         75 
 70.86         72 
 70.88         68 
 70.9          86 
 70.92         84 
 70.94         84 
 70.96         102 
 70.98         84 
 71            100 
 71.02         120 
 71.04         95 
 71.06         120 
 71.08         109 
 71.1          120 
 71.12         164 
 71.14         165 
 71.16         172 
 71.18         206 
 71.2          231 
 71.22         235 
 71.24         244 
 71.26         280 
 71.28         329 
 71.3          316 
 71.32         313 
 71.34         324 
 71.36         308 
 71.38         330 
 71.4          334 
 71.42         299 
 71.44         329 
 71.46         308 
 71.48         311 
 71.5          274 
 71.52         292 
 71.54         275 
 71.56         248 
 71.58         291 
 71.6          236 
 71.62         244 
 71.64         210 
 71.66         209 
 71.68         184 
 71.7          176 
 71.72         172 
 71.74         171 
 71.76         165 
 71.78         162 
 71.8          150 
 71.82         163 
 71.84         174 
 71.86         164 
 71.88         202 
 71.9          206 
 71.92         210 
 71.94         253 
 71.96         269 
 71.98         284 
 72            268 
 72.02         346 
 72.04         344 
 72.06         385 
 72.08         445 
 72.1          451 
 72.12         496 
 72.14         534 
 72.16         586 
 72.18         597 
 72.2          583 
 72.22         565 
 72.24         622 
 72.26         642 
 72.28         629 
 72.3          674 
 72.32         608 
 72.34         559 
 72.36         624 
 72.38         555 
 72.4          577 
 72.42         552 
 72.44         532 
 72.46         529 
 72.48         509 
 72.5          459 
 72.52         453 
 72.54         446 
 72.56         420 
 72.58         388 
 72.6          349 
 72.62         347 
 72.64         337 
 72.66         324 
 72.68         311 
 72.7          293 
 72.72         266 
 72.74         264 
 72.76         265 
 72.78         239 
 72.8          252 
 72.82         283 
 72.84         268 
 72.86         294 
 72.88         307 
 72.9          316 
 72.92         310 
 72.94         379 
 72.96         400 
 72.98         390 
 73            424 
 73.02         428 
 73.04         521 
 73.06         506 
 73.08         528 
 73.1          536 
 73.12         614 
 73.14         544 
 73.16         591 
 73.18         596 
 73.2          621 
 73.22         612 
 73.24         543 
 73.26         594 
 73.28         552 
 73.3          552 
 73.32         556 
 73.34         529 
 73.36         552 
 73.38         470 
 73.4          484 
 73.42         472 
 73.44         450 
 73.46         432 
 73.48         466 
 73.5          408 
 73.52         417 
 73.54         421 
 73.56         469 
 73.58         398 
 73.6          482 
 73.62         495 
 73.64         522 
 73.66         528 
 73.68         536 
 73.7          525 
 73.72         542 
 73.74         552 
 73.76         581 
 73.78         577 
 73.8          564 
 73.82         540 
 73.84         569 
 73.86         511 
 73.88         532 
 73.9          512 
 73.92         473 
 73.93999      461 
 73.96         476 
 73.98         441 
 74            420 
 74.02         356 
 74.04         368 
 74.06         341 
 74.08         314 
 74.1          253 
 74.12         286 
 74.14         242 
 74.16         228 
 74.18         228 
 74.2          182 
 74.22         184 
 74.24         182 
 74.26         160 
 74.28         146 
 74.3          136 
 74.32         152 
 74.34         135 
 74.36         105 
 74.38         108 
 74.4          112 
 74.42         106 
 74.43999      115 
 74.46         131 
 74.48         100 
 74.5          80 
 74.52         82 
 74.54         95 
 74.56         107 
 74.58         104 
 74.6          84 
 74.62         85 
 74.64         76 
 74.66         76 
 74.68         77 
 74.7          63 
 74.72         86 
 74.74         77 
 74.76         89 
 74.78         64 
 74.8          85 
 74.82         82 
 74.84         93 
 74.86         73 
 74.88         91 
 74.9          85 
 74.92         78 
 74.93999      77 
 74.96         68 
 74.98         60 
 75            79 
