F900k900-2St_P4  Original Data
 3151 
 12            408 
 12.02         422 
 12.04         408 
 12.06         422 
 12.08         460 
 12.1          428 
 12.12         416 
 12.14         438 
 12.16         388 
 12.18         434 
 12.2          451 
 12.22         386 
 12.24         418 
 12.26         400 
 12.28         409 
 12.3          414 
 12.32         412 
 12.34         403 
 12.36         402 
 12.38         384 
 12.4          422 
 12.42         420 
 12.44         430 
 12.46         367 
 12.48         416 
 12.5          426 
 12.52         330 
 12.54         412 
 12.56         379 
 12.58         412 
 12.6          342 
 12.62         407 
 12.64         359 
 12.66         400 
 12.68         378 
 12.7          417 
 12.72         346 
 12.74         390 
 12.76         342 
 12.78         396 
 12.8          386 
 12.82         393 
 12.84         338 
 12.86         334 
 12.88         378 
 12.9          368 
 12.92         372 
 12.94         353 
 12.96         386 
 12.98         348 
 13            382 
 13.02         376 
 13.04         356 
 13.06         351 
 13.08         394 
 13.1          329 
 13.12         368 
 13.14         367 
 13.16         343 
 13.18         342 
 13.2          313 
 13.22         352 
 13.24         327 
 13.26         330 
 13.28         342 
 13.3          331 
 13.32         314 
 13.34         365 
 13.36         314 
 13.38         324 
 13.4          332 
 13.42         341 
 13.44         306 
 13.46         291 
 13.48         350 
 13.5          292 
 13.52         309 
 13.54         317 
 13.56         304 
 13.58         297 
 13.6          349 
 13.62         279 
 13.64         324 
 13.66         299 
 13.68         312 
 13.7          326 
 13.72         282 
 13.74         325 
 13.76         279 
 13.78         307 
 13.8          271 
 13.82         301 
 13.84         297 
 13.86         280 
 13.88         253 
 13.9          303 
 13.92         248 
 13.94         277 
 13.96         295 
 13.98         276 
 14            306 
 14.02         298 
 14.04         245 
 14.06         272 
 14.08         275 
 14.1          245 
 14.12         307 
 14.14         284 
 14.16         305 
 14.18         256 
 14.2          262 
 14.22         242 
 14.24         247 
 14.26         259 
 14.28         280 
 14.3          274 
 14.32         287 
 14.34         278 
 14.36         282 
 14.38         306 
 14.4          280 
 14.42         315 
 14.44         309 
 14.46         349 
 14.48         324 
 14.5          372 
 14.52         384 
 14.54         395 
 14.56         426 
 14.58         493 
 14.6          535 
 14.62         584 
 14.64         650 
 14.66         654 
 14.68         747 
 14.7          852 
 14.72         926 
 14.74         1106 
 14.76         1269 
 14.78         1421 
 14.8          1662 
 14.82         1961 
 14.84         2269 
 14.86         2760 
 14.88         3539 
 14.9          4222 
 14.92         4907 
 14.94         5444 
 14.96         5371 
 14.98         4768 
 15            3905 
 15.02         2572 
 15.04         1586 
 15.06         863 
 15.08         525 
 15.1          384 
 15.12         350 
 15.14         314 
 15.16         287 
 15.18         242 
 15.2          245 
 15.22         255 
 15.24         221 
 15.26         233 
 15.28         235 
 15.3          229 
 15.32         201 
 15.34         215 
 15.36         201 
 15.38         208 
 15.4          211 
 15.42         216 
 15.44         220 
 15.46         217 
 15.48         212 
 15.5          208 
 15.52         198 
 15.54         198 
 15.56         199 
 15.58         219 
 15.6          209 
 15.62         196 
 15.64         219 
 15.66         169 
 15.68         197 
 15.7          199 
 15.72         191 
 15.74         157 
 15.76         184 
 15.78         219 
 15.8          203 
 15.82         198 
 15.84         193 
 15.86         189 
 15.88         197 
 15.9          171 
 15.92         190 
 15.94         188 
 15.96         202 
 15.98         188 
 16            187 
 16.02         185 
 16.04         174 
 16.06         175 
 16.08         182 
 16.1          210 
 16.12         164 
 16.14         198 
 16.16         189 
 16.18         162 
 16.2          192 
 16.22         193 
 16.24         176 
 16.26         184 
 16.28         170 
 16.3          174 
 16.32         196 
 16.34         200 
 16.36         172 
 16.38         181 
 16.4          163 
 16.42         191 
 16.44         176 
 16.46         195 
 16.48         195 
 16.5          169 
 16.52         184 
 16.54         169 
 16.56         171 
 16.58         183 
 16.6          164 
 16.62         164 
 16.64         153 
 16.66         179 
 16.68         176 
 16.7          190 
 16.72         179 
 16.74         168 
 16.76         178 
 16.78         183 
 16.8          161 
 16.82         187 
 16.84         186 
 16.86         166 
 16.88         177 
 16.9          160 
 16.92         170 
 16.94         179 
 16.96         176 
 16.98         180 
 17            189 
 17.02         159 
 17.04         191 
 17.06         152 
 17.08         166 
 17.1          125 
 17.12         147 
 17.14         162 
 17.16         151 
 17.18         164 
 17.2          170 
 17.22         166 
 17.24         181 
 17.26         151 
 17.28         146 
 17.3          166 
 17.32         171 
 17.34         160 
 17.36         167 
 17.38         142 
 17.4          174 
 17.42         166 
 17.44         166 
 17.46         172 
 17.48         157 
 17.5          152 
 17.52         162 
 17.54         164 
 17.56         169 
 17.58         161 
 17.6          181 
 17.62         156 
 17.64         153 
 17.66         162 
 17.68         168 
 17.7          187 
 17.72         158 
 17.74         154 
 17.76         167 
 17.78         158 
 17.8          158 
 17.82         139 
 17.84         169 
 17.86         136 
 17.88         151 
 17.9          165 
 17.92         158 
 17.94         159 
 17.96         160 
 17.98         136 
 18            154 
 18.02         155 
 18.04         156 
 18.06         151 
 18.08         159 
 18.1          165 
 18.12         163 
 18.14         156 
 18.16         146 
 18.18         144 
 18.2          175 
 18.22         167 
 18.24         152 
 18.26         148 
 18.28         150 
 18.3          150 
 18.32         142 
 18.34         162 
 18.36         143 
 18.38         165 
 18.4          160 
 18.42         145 
 18.44         137 
 18.46         155 
 18.48         151 
 18.5          144 
 18.52         162 
 18.54         135 
 18.56         125 
 18.58         155 
 18.6          151 
 18.62         176 
 18.64         150 
 18.66         136 
 18.68         132 
 18.7          146 
 18.72         137 
 18.74         147 
 18.76         166 
 18.78         148 
 18.8          130 
 18.82         140 
 18.84         139 
 18.86         166 
 18.88         145 
 18.9          151 
 18.92         156 
 18.94         132 
 18.96         134 
 18.98         142 
 19            147 
 19.02         147 
 19.04         151 
 19.06         131 
 19.08         115 
 19.1          141 
 19.12         123 
 19.14         154 
 19.16         151 
 19.18         122 
 19.2          147 
 19.22         134 
 19.24         147 
 19.26         137 
 19.28         141 
 19.3          149 
 19.32         149 
 19.34         147 
 19.36         136 
 19.38         165 
 19.4          155 
 19.42         143 
 19.44         140 
 19.46         148 
 19.48         148 
 19.5          156 
 19.52         140 
 19.54         140 
 19.56         156 
 19.58         142 
 19.6          145 
 19.62         136 
 19.64         132 
 19.66         157 
 19.68         137 
 19.7          142 
 19.72         155 
 19.74         134 
 19.76         168 
 19.78         140 
 19.8          165 
 19.82         139 
 19.84         143 
 19.86         163 
 19.88         144 
 19.9          134 
 19.92         133 
 19.94         113 
 19.96         153 
 19.98         156 
 20            148 
 20.02         141 
 20.04         164 
 20.06         137 
 20.08         142 
 20.1          161 
 20.12         173 
 20.14         177 
 20.16         198 
 20.18         221 
 20.2          221 
 20.22         223 
 20.24         275 
 20.26         271 
 20.28         274 
 20.3          296 
 20.32         319 
 20.34         343 
 20.36         329 
 20.38         322 
 20.4          335 
 20.42         365 
 20.44         322 
 20.46         299 
 20.48         290 
 20.5          224 
 20.52         204 
 20.54         173 
 20.56         200 
 20.58         210 
 20.6          226 
 20.62         250 
 20.64         227 
 20.66         296 
 20.68         340 
 20.7          342 
 20.72         390 
 20.74         491 
 20.76         539 
 20.78         650 
 20.8          763 
 20.82         871 
 20.84         997 
 20.86         1157 
 20.88         1448 
 20.9          1745 
 20.92         2204 
 20.94         2584 
 20.96         3255 
 20.98         3928 
 21            4869 
 21.02         6268 
 21.04         7962 
 21.06         9895 
 21.08         12005 
 21.1          13657 
 21.12         15312 
 21.14         15328 
 21.16         14254 
 21.18         12319 
 21.2          10267 
 21.22         7969 
 21.24         6332 
 21.26         5835 
 21.28         5817 
 21.3          6420 
 21.32         7594 
 21.34         8721 
 21.36         9853 
 21.38         10257 
 21.4          9739 
 21.42         8782 
 21.44         7197 
 21.46         5198 
 21.48         3657 
 21.5          2397 
 21.52         1569 
 21.54         1206 
 21.56         981 
 21.58         895 
 21.6          1030 
 21.62         1055 
 21.64         1062 
 21.66         1070 
 21.68         961 
 21.7          944 
 21.72         762 
 21.74         646 
 21.76         460 
 21.78         386 
 21.8          279 
 21.82         260 
 21.84         232 
 21.86         201 
 21.88         222 
 21.9          183 
 21.92         168 
 21.94         159 
 21.96         166 
 21.98         150 
 22            153 
 22.02         144 
 22.04         153 
 22.06         132 
 22.08         139 
 22.1          144 
 22.12         138 
 22.14         133 
 22.16         124 
 22.18         130 
 22.2          142 
 22.22         140 
 22.24         121 
 22.26         129 
 22.28         158 
 22.3          113 
 22.32         158 
 22.34         136 
 22.36         121 
 22.38         135 
 22.4          136 
 22.42         132 
 22.44         139 
 22.46         123 
 22.48         122 
 22.5          138 
 22.52         124 
 22.54         128 
 22.56         116 
 22.58         113 
 22.6          122 
 22.62         139 
 22.64         127 
 22.66         130 
 22.68         139 
 22.7          121 
 22.72         120 
 22.74         117 
 22.76         132 
 22.78         112 
 22.8          134 
 22.82         118 
 22.84         118 
 22.86         123 
 22.88         115 
 22.9          127 
 22.92         122 
 22.94         115 
 22.96         122 
 22.98         116 
 23            122 
 23.02         125 
 23.04         125 
 23.06         129 
 23.08         135 
 23.1          131 
 23.12         139 
 23.14         127 
 23.16         126 
 23.18         105 
 23.2          121 
 23.22         117 
 23.24         131 
 23.26         119 
 23.28         107 
 23.3          123 
 23.32         127 
 23.34         132 
 23.36         124 
 23.38         115 
 23.4          120 
 23.42         121 
 23.44         107 
 23.46         116 
 23.48         113 
 23.5          97 
 23.52         129 
 23.54         139 
 23.56         130 
 23.58         133 
 23.6          123 
 23.62         111 
 23.64         100 
 23.66         116 
 23.68         123 
 23.7          126 
 23.72         114 
 23.74         125 
 23.76         117 
 23.78         113 
 23.8          112 
 23.82         102 
 23.84         131 
 23.86         131 
 23.88         120 
 23.9          120 
 23.92         123 
 23.94         144 
 23.96         110 
 23.98         142 
 24            111 
 24.02         136 
 24.04         131 
 24.06         128 
 24.08         120 
 24.1          128 
 24.12         121 
 24.14         114 
 24.16         132 
 24.18         124 
 24.2          127 
 24.22         132 
 24.24         121 
 24.26         116 
 24.28         139 
 24.3          133 
 24.32         147 
 24.34         129 
 24.36         163 
 24.38         127 
 24.4          115 
 24.42         136 
 24.44         157 
 24.46         196 
 24.48         171 
 24.5          185 
 24.52         226 
 24.54         221 
 24.56         308 
 24.58         320 
 24.6          325 
 24.62         425 
 24.64         485 
 24.66         545 
 24.68         650 
 24.7          719 
 24.72         827 
 24.74         1015 
 24.76         1139 
 24.78         1375 
 24.8          1758 
 24.82         2111 
 24.84         2541 
 24.86         3285 
 24.88         4278 
 24.9          5594 
 24.92         7303 
 24.94         9517 
 24.96         12157 
 24.98         15170 
 25            17613 
 25.02         19270 
 25.04         19429 
 25.06         18111 
 25.08         15053 
 25.1          11415 
 25.12         8335 
 25.14         5358 
 25.16         3331 
 25.18         1963 
 25.2          1205 
 25.22         787 
 25.24         543 
 25.26         500 
 25.28         457 
 25.3          378 
 25.32         355 
 25.34         321 
 25.36         287 
 25.38         273 
 25.4          259 
 25.42         229 
 25.44         268 
 25.46         242 
 25.48         227 
 25.5          241 
 25.52         252 
 25.54         254 
 25.56         284 
 25.58         295 
 25.6          304 
 25.62         400 
 25.64         445 
 25.66         493 
 25.68         587 
 25.7          730 
 25.72         866 
 25.74         1123 
 25.76         1226 
 25.78         1423 
 25.8          1591 
 25.82         1547 
 25.84         1675 
 25.86         1446 
 25.88         1367 
 25.9          1013 
 25.92         840 
 25.94         649 
 25.96         472 
 25.98         357 
 26            280 
 26.02         228 
 26.04         173 
 26.06         189 
 26.08         179 
 26.1          169 
 26.12         180 
 26.14         190 
 26.16         176 
 26.18         205 
 26.2          219 
 26.22         227 
 26.24         260 
 26.26         245 
 26.28         209 
 26.3          194 
 26.32         181 
 26.34         146 
 26.36         165 
 26.38         131 
 26.4          111 
 26.42         121 
 26.44         100 
 26.46         112 
 26.48         101 
 26.5          114 
 26.52         92 
 26.54         120 
 26.56         116 
 26.58         88 
 26.6          104 
 26.62         123 
 26.64         103 
 26.66         112 
 26.68         96 
 26.7          107 
 26.72         88 
 26.74         102 
 26.76         102 
 26.78         111 
 26.8          111 
 26.82         104 
 26.84         122 
 26.86         111 
 26.88         98 
 26.9          106 
 26.92         103 
 26.94         118 
 26.96         105 
 26.98         115 
 27            106 
 27.02         98 
 27.04         114 
 27.06         95 
 27.08         120 
 27.1          93 
 27.12         110 
 27.14         98 
 27.16         101 
 27.18         92 
 27.2          115 
 27.22         109 
 27.24         122 
 27.26         112 
 27.28         103 
 27.3          116 
 27.32         104 
 27.34         110 
 27.36         80 
 27.38         101 
 27.4          107 
 27.42         95 
 27.44         108 
 27.46         108 
 27.48         98 
 27.5          104 
 27.52         107 
 27.54         111 
 27.56         115 
 27.58         98 
 27.6          103 
 27.62         133 
 27.64         94 
 27.66         95 
 27.68         122 
 27.7          94 
 27.72         117 
 27.74         111 
 27.76         95 
 27.78         118 
 27.8          127 
 27.82         108 
 27.84         122 
 27.86         112 
 27.88         134 
 27.9          145 
 27.92         130 
 27.94         144 
 27.96         134 
 27.98         167 
 28            149 
 28.02         160 
 28.04         172 
 28.06         167 
 28.08         195 
 28.1          155 
 28.12         140 
 28.14         153 
 28.16         126 
 28.18         119 
 28.2          119 
 28.22         117 
 28.24         102 
 28.26         93 
 28.28         112 
 28.3          103 
 28.32         94 
 28.34         86 
 28.36         115 
 28.38         99 
 28.4          106 
 28.42         94 
 28.44         83 
 28.46         115 
 28.48         104 
 28.5          90 
 28.52         110 
 28.54         99 
 28.56         116 
 28.58         101 
 28.6          112 
 28.62         115 
 28.64         108 
 28.66         118 
 28.68         112 
 28.7          102 
 28.72         108 
 28.74         91 
 28.76         100 
 28.78         92 
 28.8          105 
 28.82         84 
 28.84         88 
 28.86         99 
 28.88         100 
 28.9          98 
 28.92         110 
 28.94         91 
 28.96         115 
 28.98         97 
 29            101 
 29.02         95 
 29.04         95 
 29.06         114 
 29.08         104 
 29.1          90 
 29.12         100 
 29.14         85 
 29.16         109 
 29.18         92 
 29.2          93 
 29.22         95 
 29.24         87 
 29.26         90 
 29.28         91 
 29.3          91 
 29.32         90 
 29.34         93 
 29.36         109 
 29.38         79 
 29.4          98 
 29.42         96 
 29.44         103 
 29.46         104 
 29.48         89 
 29.5          108 
 29.52         100 
 29.54         108 
 29.56         100 
 29.58         107 
 29.6          95 
 29.62         107 
 29.64         98 
 29.66         101 
 29.68         96 
 29.7          112 
 29.72         128 
 29.74         120 
 29.76         124 
 29.78         174 
 29.8          131 
 29.82         182 
 29.84         175 
 29.86         203 
 29.88         223 
 29.9          266 
 29.92         284 
 29.94         334 
 29.96         354 
 29.98         396 
 30            481 
 30.02         507 
 30.04         575 
 30.06         752 
 30.08         883 
 30.1          1101 
 30.12         1456 
 30.14         1906 
 30.16         2465 
 30.18         3422 
 30.2          4623 
 30.22         5969 
 30.24         7786 
 30.26         8945 
 30.28         10056 
 30.3          10577 
 30.32         10135 
 30.34         8788 
 30.36         7277 
 30.38         5882 
 30.4          4378 
 30.42         2974 
 30.44         1954 
 30.46         1298 
 30.48         828 
 30.5          554 
 30.52         434 
 30.54         356 
 30.56         294 
 30.58         222 
 30.6          224 
 30.62         221 
 30.64         192 
 30.66         177 
 30.68         204 
 30.7          166 
 30.72         160 
 30.74         164 
 30.76         142 
 30.78         164 
 30.8          167 
 30.82         164 
 30.84         153 
 30.86         154 
 30.88         144 
 30.9          147 
 30.92         172 
 30.94         169 
 30.96         143 
 30.98         160 
 31            176 
 31.02         158 
 31.04         194 
 31.06         178 
 31.08         159 
 31.1          146 
 31.12         127 
 31.14         122 
 31.16         115 
 31.18         105 
 31.2          102 
 31.22         106 
 31.24         96 
 31.26         113 
 31.28         104 
 31.3          105 
 31.32         97 
 31.34         94 
 31.36         79 
 31.38         98 
 31.4          87 
 31.42         108 
 31.44         93 
 31.46         88 
 31.48         88 
 31.5          107 
 31.52         88 
 31.54         82 
 31.56         95 
 31.58         99 
 31.6          91 
 31.62         88 
 31.64         82 
 31.66         115 
 31.68         73 
 31.7          72 
 31.72         102 
 31.74         86 
 31.76         98 
 31.78         81 
 31.8          75 
 31.82         86 
 31.84         83 
 31.86         82 
 31.88         76 
 31.9          88 
 31.92         83 
 31.94         62 
 31.96         91 
 31.98         81 
 32            95 
 32.02         82 
 32.04         94 
 32.06         94 
 32.08         77 
 32.1          88 
 32.12         75 
 32.14         92 
 32.16         79 
 32.18         91 
 32.2          85 
 32.22         81 
 32.24         93 
 32.26         95 
 32.28         93 
 32.3          101 
 32.32         90 
 32.34         91 
 32.36         99 
 32.38         99 
 32.4          94 
 32.42         77 
 32.44         83 
 32.46         97 
 32.48         95 
 32.5          94 
 32.52         91 
 32.54         78 
 32.56         89 
 32.58         82 
 32.6          77 
 32.62         88 
 32.64         87 
 32.66         89 
 32.68         95 
 32.7          103 
 32.72         88 
 32.74         90 
 32.76         84 
 32.78         118 
 32.8          102 
 32.82         129 
 32.84         142 
 32.86         124 
 32.88         154 
 32.9          164 
 32.92         133 
 32.94         162 
 32.96         180 
 32.98         210 
 33            234 
 33.02         240 
 33.04         324 
 33.06         326 
 33.08         411 
 33.1          471 
 33.12         619 
 33.14         723 
 33.16         980 
 33.18         1321 
 33.2          1721 
 33.22         2083 
 33.24         2564 
 33.26         2845 
 33.28         3081 
 33.3          3090 
 33.32         2968 
 33.34         2747 
 33.36         2417 
 33.38         1991 
 33.4          1618 
 33.42         1278 
 33.44         1004 
 33.46         702 
 33.48         617 
 33.5          509 
 33.52         448 
 33.54         436 
 33.56         462 
 33.58         515 
 33.6          591 
 33.62         733 
 33.64         896 
 33.66         1294 
 33.68         1677 
 33.7          2246 
 33.72         2935 
 33.74         3731 
 33.76         4601 
 33.78         5385 
 33.8          6171 
 33.82         6470 
 33.84         6475 
 33.86         5989 
 33.88         5410 
 33.9          4578 
 33.92         3678 
 33.94         2898 
 33.96         2128 
 33.98         1551 
 34            1003 
 34.02         750 
 34.04         507 
 34.06         389 
 34.08         307 
 34.1          244 
 34.12         215 
 34.14         177 
 34.16         159 
 34.18         153 
 34.2          131 
 34.22         136 
 34.24         149 
 34.26         125 
 34.28         134 
 34.3          112 
 34.32         116 
 34.34         119 
 34.36         113 
 34.38         119 
 34.4          119 
 34.42         112 
 34.44         117 
 34.46         104 
 34.48         102 
 34.5          101 
 34.52         91 
 34.54         112 
 34.56         96 
 34.58         107 
 34.6          91 
 34.62         105 
 34.64         99 
 34.66         95 
 34.68         93 
 34.7          97 
 34.72         88 
 34.74         96 
 34.76         74 
 34.78         102 
 34.8          91 
 34.82         106 
 34.84         84 
 34.86         114 
 34.88         103 
 34.9          91 
 34.92         97 
 34.94         99 
 34.96         114 
 34.98         127 
 35            112 
 35.02         102 
 35.04         119 
 35.06         109 
 35.08         106 
 35.1          101 
 35.12         120 
 35.14         107 
 35.16         101 
 35.18         113 
 35.2          112 
 35.22         105 
 35.24         117 
 35.26         141 
 35.28         121 
 35.3          122 
 35.32         141 
 35.34         123 
 35.36         98 
 35.38         118 
 35.4          107 
 35.42         100 
 35.44         107 
 35.46         112 
 35.48         115 
 35.5          110 
 35.52         110 
 35.54         114 
 35.56         150 
 35.58         141 
 35.6          132 
 35.62         153 
 35.64         154 
 35.66         176 
 35.68         200 
 35.7          209 
 35.72         172 
 35.74         208 
 35.76         195 
 35.78         160 
 35.8          206 
 35.82         189 
 35.84         177 
 35.86         170 
 35.88         190 
 35.9          187 
 35.92         188 
 35.94         145 
 35.96         160 
 35.98         133 
 36            123 
 36.02         113 
 36.04         94 
 36.06         100 
 36.08         90 
 36.1          101 
 36.12         82 
 36.14         102 
 36.16         82 
 36.18         79 
 36.2          87 
 36.22         70 
 36.24         85 
 36.26         78 
 36.28         64 
 36.3          90 
 36.32         96 
 36.34         76 
 36.36         82 
 36.38         84 
 36.4          91 
 36.42         73 
 36.44         87 
 36.46         84 
 36.48         78 
 36.5          89 
 36.52         81 
 36.54         80 
 36.56         73 
 36.58         74 
 36.6          75 
 36.62         81 
 36.64         95 
 36.66         88 
 36.68         85 
 36.7          91 
 36.72         92 
 36.74         86 
 36.76         123 
 36.78         102 
 36.8          122 
 36.82         98 
 36.84         111 
 36.86         122 
 36.88         138 
 36.9          158 
 36.92         173 
 36.94         166 
 36.96         186 
 36.98         201 
 37            200 
 37.02         194 
 37.04         203 
 37.06         240 
 37.08         209 
 37.1          216 
 37.12         233 
 37.14         271 
 37.16         224 
 37.18         301 
 37.2          337 
 37.22         386 
 37.24         459 
 37.26         559 
 37.28         708 
 37.3          952 
 37.32         1239 
 37.34         1565 
 37.36         2080 
 37.38         2453 
 37.4          2997 
 37.42         3553 
 37.44         3847 
 37.46         4104 
 37.48         4164 
 37.5          4287 
 37.52         4449 
 37.54         4413 
 37.56         4318 
 37.58         4245 
 37.6          4131 
 37.62         3716 
 37.64         3366 
 37.66         2904 
 37.68         2508 
 37.7          2024 
 37.72         1643 
 37.74         1255 
 37.76         984 
 37.78         695 
 37.8          522 
 37.82         422 
 37.84         341 
 37.86         300 
 37.88         332 
 37.9          314 
 37.92         307 
 37.94         322 
 37.96         278 
 37.98         275 
 38            279 
 38.02         252 
 38.04         232 
 38.06         190 
 38.08         211 
 38.1          180 
 38.12         145 
 38.14         143 
 38.16         128 
 38.18         99 
 38.2          113 
 38.22         102 
 38.24         95 
 38.26         88 
 38.28         93 
 38.3          113 
 38.32         97 
 38.34         87 
 38.36         81 
 38.38         84 
 38.4          94 
 38.42         88 
 38.44         91 
 38.46         92 
 38.48         86 
 38.5          66 
 38.52         80 
 38.54         85 
 38.56         76 
 38.58         79 
 38.6          97 
 38.62         98 
 38.64         71 
 38.66         89 
 38.68         79 
 38.7          75 
 38.72         78 
 38.74         74 
 38.76         89 
 38.78         71 
 38.8          80 
 38.82         88 
 38.84         61 
 38.86         74 
 38.88         86 
 38.9          70 
 38.92         79 
 38.94         82 
 38.96         74 
 38.98         76 
 39            84 
 39.02         82 
 39.04         71 
 39.06         106 
 39.08         94 
 39.1          98 
 39.12         99 
 39.14         112 
 39.16         87 
 39.18         107 
 39.2          116 
 39.22         140 
 39.24         152 
 39.26         154 
 39.28         139 
 39.3          154 
 39.32         164 
 39.34         186 
 39.36         178 
 39.38         182 
 39.4          157 
 39.42         172 
 39.44         165 
 39.46         155 
 39.48         137 
 39.5          139 
 39.52         160 
 39.54         139 
 39.56         128 
 39.58         114 
 39.6          120 
 39.62         123 
 39.64         114 
 39.66         141 
 39.68         114 
 39.7          116 
 39.72         142 
 39.74         138 
 39.76         149 
 39.78         217 
 39.8          187 
 39.82         224 
 39.84         232 
 39.86         244 
 39.88         293 
 39.9          281 
 39.92         294 
 39.94         293 
 39.96         264 
 39.98         237 
 40            203 
 40.02         203 
 40.04         168 
 40.06         174 
 40.08         148 
 40.1          131 
 40.12         108 
 40.14         103 
 40.16         96 
 40.18         92 
 40.2          79 
 40.22         85 
 40.24         87 
 40.26         86 
 40.28         91 
 40.3          69 
 40.32         84 
 40.34         83 
 40.36         74 
 40.38         63 
 40.4          79 
 40.42         58 
 40.44         80 
 40.46         71 
 40.48         71 
 40.5          76 
 40.52         73 
 40.54         85 
 40.56         79 
 40.58         73 
 40.6          107 
 40.62         94 
 40.64         83 
 40.66         81 
 40.68         79 
 40.7          81 
 40.72         77 
 40.74         79 
 40.76         83 
 40.78         73 
 40.8          71 
 40.82         55 
 40.84         74 
 40.86         81 
 40.88         88 
 40.9          74 
 40.92         64 
 40.94         71 
 40.96         79 
 40.98         70 
 41            86 
 41.02         81 
 41.04         74 
 41.06         80 
 41.08         92 
 41.1          78 
 41.12         85 
 41.14         69 
 41.16         80 
 41.18         92 
 41.2          68 
 41.22         77 
 41.24         94 
 41.26         93 
 41.28         91 
 41.3          81 
 41.32         81 
 41.34         80 
 41.36         92 
 41.38         97 
 41.4          98 
 41.42         97 
 41.44         101 
 41.46         125 
 41.48         126 
 41.5          123 
 41.52         149 
 41.54         146 
 41.56         159 
 41.58         160 
 41.6          176 
 41.62         166 
 41.64         202 
 41.66         164 
 41.68         173 
 41.7          161 
 41.72         163 
 41.74         147 
 41.76         145 
 41.78         121 
 41.8          85 
 41.82         108 
 41.84         105 
 41.86         106 
 41.88         104 
 41.9          84 
 41.92         77 
 41.94         84 
 41.96         82 
 41.98         81 
 42            86 
 42.02         88 
 42.04         98 
 42.06         79 
 42.08         111 
 42.1          90 
 42.12         87 
 42.14         81 
 42.16         114 
 42.18         94 
 42.2          86 
 42.22         86 
 42.24         87 
 42.26         81 
 42.28         79 
 42.3          91 
 42.32         88 
 42.34         75 
 42.36         78 
 42.38         80 
 42.4          81 
 42.42         81 
 42.44         94 
 42.46         75 
 42.48         67 
 42.5          87 
 42.52         70 
 42.54         87 
 42.56         70 
 42.58         91 
 42.6          73 
 42.62         76 
 42.64         86 
 42.66         69 
 42.68         90 
 42.7          85 
 42.72         97 
 42.74         96 
 42.76         88 
 42.78         93 
 42.8          102 
 42.82         88 
 42.84         100 
 42.86         121 
 42.88         107 
 42.9          101 
 42.92         114 
 42.94         117 
 42.96         150 
 42.98         173 
 43            181 
 43.02         239 
 43.04         283 
 43.06         349 
 43.08         414 
 43.1          489 
 43.12         545 
 43.14         632 
 43.16         571 
 43.18         676 
 43.2          607 
 43.22         600 
 43.24         558 
 43.26         508 
 43.28         434 
 43.3          361 
 43.32         341 
 43.34         270 
 43.36         205 
 43.38         190 
 43.4          166 
 43.42         132 
 43.44         117 
 43.46         114 
 43.48         106 
 43.5          110 
 43.52         88 
 43.54         89 
 43.56         85 
 43.58         101 
 43.6          103 
 43.62         116 
 43.64         117 
 43.66         116 
 43.68         120 
 43.7          112 
 43.72         106 
 43.74         112 
 43.76         119 
 43.78         117 
 43.8          117 
 43.82         93 
 43.84         99 
 43.86         106 
 43.88         95 
 43.9          97 
 43.92         93 
 43.94         68 
 43.96         102 
 43.98         73 
 44            76 
 44.02         78 
 44.04         84 
 44.06         79 
 44.08         71 
 44.1          70 
 44.12         64 
 44.14         79 
 44.16         85 
 44.18         69 
 44.2          91 
 44.22         78 
 44.24         88 
 44.26         79 
 44.28         81 
 44.3          77 
 44.32         67 
 44.34         83 
 44.36         80 
 44.38         96 
 44.4          85 
 44.42         89 
 44.44         81 
 44.46         82 
 44.48         72 
 44.5          100 
 44.52         90 
 44.54         79 
 44.56         100 
 44.58         87 
 44.6          91 
 44.62         97 
 44.64         87 
 44.66         92 
 44.68         89 
 44.7          107 
 44.72         99 
 44.74         87 
 44.76         115 
 44.78         111 
 44.8          119 
 44.82         103 
 44.84         133 
 44.86         128 
 44.88         133 
 44.9          181 
 44.92         163 
 44.94         182 
 44.96         223 
 44.98         249 
 45            306 
 45.02         370 
 45.04         432 
 45.06         535 
 45.08         620 
 45.1          729 
 45.12         761 
 45.14         865 
 45.16         837 
 45.18         813 
 45.2          916 
 45.22         852 
 45.24         841 
 45.26         738 
 45.28         723 
 45.3          643 
 45.32         578 
 45.34         608 
 45.36         565 
 45.38         537 
 45.4          531 
 45.42         539 
 45.44         493 
 45.46         489 
 45.48         432 
 45.5          422 
 45.52         374 
 45.54         392 
 45.56         433 
 45.58         365 
 45.6          393 
 45.62         479 
 45.64         478 
 45.66         538 
 45.68         673 
 45.7          682 
 45.72         719 
 45.74         765 
 45.76         725 
 45.78         762 
 45.8          703 
 45.82         651 
 45.84         573 
 45.86         540 
 45.88         468 
 45.9          428 
 45.92         361 
 45.94         310 
 45.96         223 
 45.98         189 
 46            176 
 46.02         155 
 46.04         153 
 46.06         165 
 46.08         139 
 46.1          145 
 46.12         197 
 46.14         168 
 46.16         215 
 46.18         256 
 46.2          254 
 46.22         275 
 46.24         287 
 46.26         292 
 46.28         312 
 46.3          324 
 46.32         315 
 46.34         313 
 46.36         345 
 46.38         337 
 46.4          366 
 46.42         373 
 46.44         426 
 46.46         439 
 46.48         461 
 46.5          464 
 46.52         486 
 46.54         433 
 46.56         410 
 46.58         337 
 46.6          338 
 46.62         296 
 46.64         275 
 46.66         225 
 46.68         179 
 46.7          161 
 46.72         120 
 46.74         131 
 46.76         113 
 46.78         98 
 46.8          111 
 46.82         87 
 46.84         82 
 46.86         80 
 46.88         79 
 46.9          80 
 46.92         69 
 46.94         60 
 46.96         81 
 46.98         89 
 47            72 
 47.02         86 
 47.04         74 
 47.06         67 
 47.08         87 
 47.1          71 
 47.12         77 
 47.14         79 
 47.16         61 
 47.18         75 
 47.2          67 
 47.22         93 
 47.24         81 
 47.26         67 
 47.28         74 
 47.3          78 
 47.32         101 
 47.34         70 
 47.36         66 
 47.38         87 
 47.4          73 
 47.42         93 
 47.44         58 
 47.46         62 
 47.48         64 
 47.5          67 
 47.52         66 
 47.54         62 
 47.56         60 
 47.58         54 
 47.6          71 
 47.62         72 
 47.64         75 
 47.66         74 
 47.68         84 
 47.7          85 
 47.72         75 
 47.74         60 
 47.76         86 
 47.78         73 
 47.8          63 
 47.82         83 
 47.84         82 
 47.86         93 
 47.88         66 
 47.9          101 
 47.92         82 
 47.94         91 
 47.96         100 
 47.98         82 
 48            107 
 48.02         97 
 48.04         76 
 48.06         120 
 48.08         116 
 48.1          101 
 48.12         86 
 48.14         109 
 48.16         128 
 48.18         129 
 48.2          121 
 48.22         122 
 48.24         129 
 48.26         152 
 48.28         152 
 48.3          176 
 48.32         201 
 48.34         180 
 48.36         204 
 48.38         241 
 48.4          238 
 48.42         220 
 48.44         259 
 48.46         335 
 48.48         363 
 48.5          409 
 48.52         517 
 48.54         644 
 48.56         886 
 48.58         1056 
 48.6          1341 
 48.62         1695 
 48.64         2125 
 48.66         2320 
 48.68         2634 
 48.7          2836 
 48.72         2869 
 48.74         2866 
 48.76         2740 
 48.78         2661 
 48.8          2411 
 48.82         2248 
 48.84         1987 
 48.86         1705 
 48.88         1441 
 48.9          1353 
 48.92         1179 
 48.94         1088 
 48.96         1094 
 48.98         1101 
 49            1236 
 49.02         1360 
 49.04         1547 
 49.06         1642 
 49.08         1720 
 49.1          1641 
 49.12         1578 
 49.14         1510 
 49.16         1480 
 49.18         1270 
 49.2          1157 
 49.22         948 
 49.24         870 
 49.26         720 
 49.28         537 
 49.3          481 
 49.32         367 
 49.34         307 
 49.36         221 
 49.38         210 
 49.4          158 
 49.42         133 
 49.44         137 
 49.46         123 
 49.48         108 
 49.5          106 
 49.52         94 
 49.54         108 
 49.56         103 
 49.58         87 
 49.6          84 
 49.62         89 
 49.64         78 
 49.66         88 
 49.68         98 
 49.7          81 
 49.72         78 
 49.74         97 
 49.76         80 
 49.78         78 
 49.8          89 
 49.82         79 
 49.84         77 
 49.86         85 
 49.88         80 
 49.9          90 
 49.92         65 
 49.94         66 
 49.96         79 
 49.98         76 
 50            81 
 50.02         68 
 50.04         70 
 50.06         77 
 50.08         80 
 50.1          83 
 50.12         82 
 50.14         74 
 50.16         78 
 50.18         84 
 50.2          93 
 50.22         82 
 50.24         82 
 50.26         64 
 50.28         82 
 50.3          78 
 50.32         80 
 50.34         80 
 50.36         79 
 50.38         80 
 50.4          81 
 50.42         78 
 50.44         76 
 50.46         101 
 50.48         92 
 50.5          86 
 50.52         105 
 50.54         85 
 50.56         99 
 50.58         100 
 50.6          74 
 50.62         90 
 50.64         77 
 50.66         94 
 50.68         102 
 50.7          121 
 50.72         130 
 50.74         116 
 50.76         161 
 50.78         170 
 50.8          257 
 50.82         261 
 50.84         308 
 50.86         361 
 50.88         446 
 50.9          544 
 50.92         651 
 50.94         703 
 50.96         776 
 50.98         786 
 51            865 
 51.02         846 
 51.04         863 
 51.06         827 
 51.08         833 
 51.1          781 
 51.12         679 
 51.14         715 
 51.16         619 
 51.18         541 
 51.2          526 
 51.22         429 
 51.24         406 
 51.26         376 
 51.28         395 
 51.3          353 
 51.32         439 
 51.34         448 
 51.36         604 
 51.38         715 
 51.4          880 
 51.42         1151 
 51.44         1410 
 51.46         1613 
 51.48         1862 
 51.5          1947 
 51.52         2218 
 51.54         2175 
 51.56         2105 
 51.58         2050 
 51.6          1951 
 51.62         1809 
 51.64         1801 
 51.66         1697 
 51.68         1603 
 51.7          1488 
 51.72         1311 
 51.74         1262 
 51.76         1137 
 51.78         1098 
 51.8          987 
 51.82         889 
 51.84         775 
 51.86         695 
 51.88         629 
 51.9          541 
 51.92         485 
 51.94         427 
 51.96         367 
 51.98         323 
 52            245 
 52.02         208 
 52.04         168 
 52.06         143 
 52.08         145 
 52.1          108 
 52.12         132 
 52.14         111 
 52.16         105 
 52.18         101 
 52.2          96 
 52.22         66 
 52.24         97 
 52.26         94 
 52.28         92 
 52.3          77 
 52.32         85 
 52.34         81 
 52.36         92 
 52.38         100 
 52.4          82 
 52.42         67 
 52.44         63 
 52.46         78 
 52.48         81 
 52.5          79 
 52.52         76 
 52.54         72 
 52.56         86 
 52.58         102 
 52.6          79 
 52.62         69 
 52.64         88 
 52.66         74 
 52.68         69 
 52.7          80 
 52.72         79 
 52.74         60 
 52.76         86 
 52.78         81 
 52.8          89 
 52.82         79 
 52.84         94 
 52.86         92 
 52.88         104 
 52.9          117 
 52.92         88 
 52.94         113 
 52.96         122 
 52.98         127 
 53            153 
 53.02         147 
 53.04         142 
 53.06         185 
 53.08         180 
 53.1          215 
 53.12         209 
 53.14         216 
 53.16         255 
 53.18         284 
 53.2          305 
 53.22         289 
 53.24         287 
 53.26         322 
 53.28         313 
 53.3          297 
 53.32         313 
 53.34         276 
 53.36         254 
 53.38         240 
 53.4          280 
 53.42         224 
 53.44         221 
 53.46         185 
 53.48         153 
 53.5          156 
 53.52         142 
 53.54         129 
 53.56         126 
 53.58         121 
 53.6          104 
 53.62         84 
 53.64         95 
 53.66         105 
 53.68         82 
 53.7          79 
 53.72         79 
 53.74         82 
 53.76         70 
 53.78         79 
 53.8          63 
 53.82         64 
 53.84         60 
 53.86         71 
 53.88         72 
 53.9          77 
 53.92         70 
 53.94         98 
 53.96         64 
 53.98         82 
 54            86 
 54.02         73 
 54.04         79 
 54.06         78 
 54.08         72 
 54.1          79 
 54.12         76 
 54.14         93 
 54.16         85 
 54.18         80 
 54.2          80 
 54.22         112 
 54.24         90 
 54.26         80 
 54.28         86 
 54.3          85 
 54.32         62 
 54.34         72 
 54.36         84 
 54.38         65 
 54.4          57 
 54.42         64 
 54.44         71 
 54.46         62 
 54.48         62 
 54.5          78 
 54.52         84 
 54.54         63 
 54.56         72 
 54.58         75 
 54.6          66 
 54.62         69 
 54.64         65 
 54.66         64 
 54.68         62 
 54.7          61 
 54.72         77 
 54.74         70 
 54.76         56 
 54.78         73 
 54.8          57 
 54.82         62 
 54.84         69 
 54.86         84 
 54.88         67 
 54.9          73 
 54.92         75 
 54.94         70 
 54.96         86 
 54.98         62 
 55            72 
 55.02         84 
 55.04         77 
 55.06         87 
 55.08         79 
 55.1          89 
 55.12         61 
 55.14         71 
 55.16         75 
 55.18         87 
 55.2          73 
 55.22         81 
 55.24         101 
 55.26         87 
 55.28         83 
 55.3          95 
 55.32         89 
 55.34         103 
 55.36         85 
 55.38         96 
 55.4          106 
 55.42         116 
 55.44         118 
 55.46         125 
 55.48         139 
 55.5          132 
 55.52         183 
 55.54         160 
 55.56         205 
 55.58         245 
 55.6          290 
 55.62         337 
 55.64         401 
 55.66         484 
 55.68         582 
 55.7          734 
 55.72         775 
 55.74         859 
 55.76         906 
 55.78         976 
 55.8          1034 
 55.82         1065 
 55.84         1156 
 55.86         1210 
 55.88         1287 
 55.9          1455 
 55.92         1596 
 55.94         1776 
 55.96         1812 
 55.98         1854 
 56            1875 
 56.02         1881 
 56.04         1806 
 56.06         1729 
 56.08         1676 
 56.1          1528 
 56.12         1469 
 56.14         1321 
 56.16         1227 
 56.18         1023 
 56.2          909 
 56.22         754 
 56.24         639 
 56.26         565 
 56.28         459 
 56.3          408 
 56.32         329 
 56.34         285 
 56.36         251 
 56.38         196 
 56.4          180 
 56.42         135 
 56.44         113 
 56.46         137 
 56.48         131 
 56.5          112 
 56.52         102 
 56.54         128 
 56.56         119 
 56.58         110 
 56.6          114 
 56.62         108 
 56.64         108 
 56.66         84 
 56.68         121 
 56.7          84 
 56.72         99 
 56.74         87 
 56.76         105 
 56.78         112 
 56.8          88 
 56.82         91 
 56.84         89 
 56.86         77 
 56.88         86 
 56.9          102 
 56.92         93 
 56.94         97 
 56.96         78 
 56.98         83 
 57            85 
 57.02         78 
 57.04         73 
 57.06         78 
 57.08         64 
 57.1          81 
 57.12         73 
 57.14         65 
 57.16         80 
 57.18         61 
 57.2          78 
 57.22         89 
 57.24         68 
 57.26         67 
 57.28         73 
 57.3          84 
 57.32         78 
 57.34         64 
 57.36         73 
 57.38         70 
 57.4          61 
 57.42         61 
 57.44         77 
 57.46         72 
 57.48         76 
 57.5          69 
 57.52         80 
 57.54         77 
 57.56         86 
 57.58         88 
 57.6          74 
 57.62         74 
 57.64         81 
 57.66         88 
 57.68         76 
 57.7          103 
 57.72         97 
 57.74         91 
 57.76         95 
 57.78         125 
 57.8          128 
 57.82         132 
 57.84         149 
 57.86         161 
 57.88         171 
 57.9          177 
 57.92         228 
 57.94         257 
 57.96         251 
 57.98         347 
 58            352 
 58.02         366 
 58.04         325 
 58.06         368 
 58.08         376 
 58.1          374 
 58.12         387 
 58.14         389 
 58.16         413 
 58.18         363 
 58.2          363 
 58.22         341 
 58.24         327 
 58.26         338 
 58.28         327 
 58.3          293 
 58.32         292 
 58.34         274 
 58.36         294 
 58.38         292 
 58.4          346 
 58.42         377 
 58.44         385 
 58.46         502 
 58.48         539 
 58.5          752 
 58.52         911 
 58.54         1012 
 58.56         1133 
 58.58         1307 
 58.6          1425 
 58.62         1451 
 58.64         1578 
 58.66         1500 
 58.68         1487 
 58.7          1456 
 58.72         1435 
 58.74         1372 
 58.76         1403 
 58.78         1469 
 58.8          1526 
 58.82         1619 
 58.84         1680 
 58.86         1771 
 58.88         1979 
 58.9          2120 
 58.92         2306 
 58.94         2491 
 58.96         2711 
 58.98         2712 
 59            2848 
 59.02         2930 
 59.04         2885 
 59.06         2904 
 59.08         2818 
 59.1          2714 
 59.12         2591 
 59.14         2398 
 59.16         2157 
 59.18         1921 
 59.2          1699 
 59.22         1523 
 59.24         1299 
 59.26         1189 
 59.28         943 
 59.3          810 
 59.32         614 
 59.34         565 
 59.36         437 
 59.38         369 
 59.4          325 
 59.42         258 
 59.44         213 
 59.46         185 
 59.48         172 
 59.5          162 
 59.52         153 
 59.54         124 
 59.56         126 
 59.58         128 
 59.6          148 
 59.62         112 
 59.64         114 
 59.66         84 
 59.68         88 
 59.7          128 
 59.72         90 
 59.74         121 
 59.76         78 
 59.78         98 
 59.8          104 
 59.82         112 
 59.84         107 
 59.86         100 
 59.88         105 
 59.9          98 
 59.92         114 
 59.94         92 
 59.96         94 
 59.98         108 
 60            111 
 60.02         112 
 60.04         103 
 60.06         121 
 60.08         136 
 60.1          142 
 60.12         163 
 60.14         154 
 60.16         168 
 60.18         212 
 60.2          208 
 60.22         213 
 60.24         225 
 60.26         241 
 60.28         256 
 60.3          196 
 60.32         232 
 60.34         225 
 60.36         213 
 60.38         216 
 60.4          209 
 60.42         220 
 60.44         251 
 60.46         272 
 60.48         328 
 60.5          298 
 60.52         384 
 60.54         389 
 60.56         447 
 60.58         506 
 60.6          600 
 60.62         608 
 60.64         679 
 60.66         664 
 60.68         705 
 60.7          739 
 60.72         700 
 60.74         704 
 60.76         672 
 60.78         630 
 60.8          597 
 60.82         563 
 60.84         500 
 60.86         474 
 60.88         414 
 60.9          397 
 60.92         329 
 60.94         332 
 60.96         263 
 60.98         214 
 61            208 
 61.02         180 
 61.04         133 
 61.06         135 
 61.08         121 
 61.1          109 
 61.12         93 
 61.14         95 
 61.16         93 
 61.18         106 
 61.2          80 
 61.22         92 
 61.24         88 
 61.26         78 
 61.28         81 
 61.3          89 
 61.32         87 
 61.34         87 
 61.36         71 
 61.38         79 
 61.4          86 
 61.42         86 
 61.44         66 
 61.46         66 
 61.48         81 
 61.5          73 
 61.52         80 
 61.54         66 
 61.56         89 
 61.58         81 
 61.6          85 
 61.62         96 
 61.64         103 
 61.66         73 
 61.68         80 
 61.7          94 
 61.72         83 
 61.74         62 
 61.76         88 
 61.78         75 
 61.8          72 
 61.82         81 
 61.84         77 
 61.86         87 
 61.88         80 
 61.9          82 
 61.92         76 
 61.94         71 
 61.96         77 
 61.98         73 
 62            69 
 62.02         64 
 62.04         71 
 62.06         73 
 62.08         90 
 62.1          75 
 62.12         62 
 62.14         88 
 62.16         65 
 62.18         73 
 62.2          75 
 62.22         75 
 62.24         70 
 62.26         70 
 62.28         73 
 62.3          59 
 62.32         68 
 62.34         74 
 62.36         67 
 62.38         53 
 62.4          65 
 62.42         63 
 62.44         75 
 62.46         91 
 62.48         67 
 62.5          67 
 62.52         72 
 62.54         91 
 62.56         81 
 62.58         69 
 62.6          73 
 62.62         81 
 62.64         90 
 62.66         75 
 62.68         62 
 62.7          60 
 62.72         77 
 62.74         74 
 62.76         84 
 62.78         90 
 62.8          90 
 62.82         84 
 62.84         107 
 62.86         82 
 62.88         72 
 62.9          116 
 62.92         110 
 62.94         118 
 62.96         147 
 62.98         149 
 63            178 
 63.02         245 
 63.04         279 
 63.06         307 
 63.08         420 
 63.1          452 
 63.12         525 
 63.14         589 
 63.16         665 
 63.18         677 
 63.2          635 
 63.22         663 
 63.24         607 
 63.26         563 
 63.28         544 
 63.3          529 
 63.32         526 
 63.34         459 
 63.36         478 
 63.38         427 
 63.4          357 
 63.42         323 
 63.44         268 
 63.46         251 
 63.48         193 
 63.5          165 
 63.52         159 
 63.54         123 
 63.56         113 
 63.58         87 
 63.6          95 
 63.62         82 
 63.64         83 
 63.66         88 
 63.68         94 
 63.7          92 
 63.72         67 
 63.74         75 
 63.76         69 
 63.78         85 
 63.8          85 
 63.82         83 
 63.84         76 
 63.86         73 
 63.88         80 
 63.9          81 
 63.92         81 
 63.94         90 
 63.96         80 
 63.98         72 
 64            84 
 64.02         65 
 64.04         99 
 64.06         87 
 64.08         80 
 64.1          97 
 64.12         90 
 64.14         92 
 64.16         84 
 64.18         103 
 64.2          109 
 64.22         102 
 64.24         111 
 64.26         112 
 64.28         139 
 64.3          149 
 64.32         173 
 64.34         178 
 64.36         189 
 64.38         185 
 64.4          223 
 64.42         226 
 64.44         246 
 64.46         275 
 64.48         297 
 64.5          341 
 64.52         306 
 64.54         326 
 64.56         314 
 64.58         313 
 64.6          361 
 64.62         299 
 64.64         321 
 64.66         325 
 64.68         297 
 64.7          315 
 64.72         321 
 64.74         305 
 64.76         297 
 64.78         316 
 64.8          331 
 64.82         336 
 64.84         341 
 64.86         352 
 64.88         378 
 64.9          391 
 64.92         459 
 64.94         479 
 64.96         499 
 64.98         562 
 65            584 
 65.02         722 
 65.04         796 
 65.06         910 
 65.08         992 
 65.1          1135 
 65.12         1193 
 65.14         1272 
 65.16         1255 
 65.18         1270 
 65.2          1188 
 65.22         1237 
 65.24         1124 
 65.26         1064 
 65.28         1041 
 65.3          961 
 65.32         967 
 65.34         881 
 65.36         875 
 65.38         870 
 65.4          801 
 65.42         803 
 65.44         805 
 65.46         826 
 65.48         795 
 65.5          941 
 65.52         992 
 65.54         979 
 65.56         1007 
 65.58         1055 
 65.6          1019 
 65.62         955 
 65.64         951 
 65.66         907 
 65.68         902 
 65.7          847 
 65.72         755 
 65.74         760 
 65.76         730 
 65.78         663 
 65.8          599 
 65.82         531 
 65.84         463 
 65.86         437 
 65.88         364 
 65.9          295 
 65.92         293 
 65.94         255 
 65.96         202 
 65.98         202 
 66            165 
 66.02         145 
 66.04         159 
 66.06         136 
 66.08         149 
 66.1          127 
 66.12         127 
 66.14         112 
 66.16         116 
 66.18         122 
 66.2          110 
 66.22         88 
 66.24         92 
 66.26         98 
 66.28         87 
 66.3          100 
 66.32         78 
 66.34         83 
 66.36         76 
 66.38         94 
 66.4          84 
 66.42         85 
 66.44         87 
 66.46         83 
 66.48         80 
 66.5          97 
 66.52         68 
 66.54         73 
 66.56         76 
 66.58         89 
 66.6          98 
 66.62         89 
 66.64         86 
 66.66         89 
 66.68         86 
 66.7          92 
 66.72         92 
 66.74         100 
 66.76         97 
 66.78         102 
 66.8          100 
 66.82         103 
 66.84         131 
 66.86         80 
 66.88         107 
 66.9          107 
 66.92         101 
 66.94         109 
 66.96         116 
 66.98         111 
 67            112 
 67.02         108 
 67.04         127 
 67.06         117 
 67.08         97 
 67.1          80 
 67.12         96 
 67.14         94 
 67.16         91 
 67.18         90 
 67.2          108 
 67.22         100 
 67.24         102 
 67.26         110 
 67.28         108 
 67.3          106 
 67.32         103 
 67.34         111 
 67.36         133 
 67.38         131 
 67.4          149 
 67.42         134 
 67.44         195 
 67.46         218 
 67.48         252 
 67.5          272 
 67.52         295 
 67.54         305 
 67.56         359 
 67.58         350 
 67.6          370 
 67.62         382 
 67.64         404 
 67.66         416 
 67.68         437 
 67.7          464 
 67.72         464 
 67.74         516 
 67.76         552 
 67.78         627 
 67.8          698 
 67.82         707 
 67.84         848 
 67.86         808 
 67.88         816 
 67.9          907 
 67.92         889 
 67.94         837 
 67.96         837 
 67.98         841 
 68            876 
 68.02         823 
 68.04         754 
 68.06         752 
 68.08         682 
 68.1          677 
 68.12         618 
 68.14         534 
 68.16         466 
 68.18         437 
 68.2          423 
 68.22         370 
 68.24         310 
 68.26         278 
 68.28         258 
 68.3          231 
 68.32         221 
 68.34         198 
 68.36         193 
 68.38         186 
 68.4          170 
 68.42         157 
 68.44         171 
 68.46         172 
 68.48         150 
 68.5          165 
 68.52         154 
 68.54         178 
 68.56         216 
 68.58         218 
 68.6          234 
 68.62         268 
 68.64         272 
 68.66         329 
 68.68         355 
 68.7          417 
 68.72         465 
 68.74         486 
 68.76         542 
 68.78         605 
 68.8          585 
 68.82         677 
 68.84         686 
 68.86         669 
 68.88         723 
 68.9          711 
 68.92         713 
 68.94         686 
 68.96         681 
 68.98         624 
 69            668 
 69.02         585 
 69.04         572 
 69.06         533 
 69.08         494 
 69.1          438 
 69.12         420 
 69.14         407 
 69.16         314 
 69.18         364 
 69.2          334 
 69.22         307 
 69.24         290 
 69.26         300 
 69.28         292 
 69.3          315 
 69.32         366 
 69.34         371 
 69.36         375 
 69.38         453 
 69.4          530 
 69.42         521 
 69.44         574 
 69.46         647 
 69.48         670 
 69.5          681 
 69.52         642 
 69.54         688 
 69.56         628 
 69.58         574 
 69.6          555 
 69.62         545 
 69.64         546 
 69.66         478 
 69.68         479 
 69.7          374 
 69.72         363 
 69.74         366 
 69.76         330 
 69.78         294 
 69.8          242 
 69.82         209 
 69.84         172 
 69.86         171 
 69.88         141 
 69.9          136 
 69.92         134 
 69.94         108 
 69.96         122 
 69.98         113 
 70            114 
 70.02         102 
 70.04         109 
 70.06         96 
 70.08         87 
 70.1          91 
 70.12         100 
 70.14         94 
 70.16         96 
 70.18         79 
 70.2          96 
 70.22         96 
 70.24         83 
 70.26         97 
 70.28         89 
 70.3          81 
 70.32         81 
 70.34         112 
 70.36         67 
 70.38         59 
 70.4          57 
 70.42         75 
 70.44         75 
 70.46         78 
 70.48         75 
 70.5          76 
 70.52         71 
 70.54         62 
 70.56         65 
 70.58         62 
 70.6          76 
 70.62         72 
 70.64         82 
 70.66         66 
 70.68         72 
 70.7          72 
 70.72         61 
 70.74         78 
 70.76         69 
 70.78         63 
 70.8          81 
 70.82         75 
 70.84         79 
 70.86         80 
 70.88         67 
 70.9          93 
 70.92         81 
 70.94         88 
 70.96         85 
 70.98         95 
 71            83 
 71.02         93 
 71.04         100 
 71.06         110 
 71.08         117 
 71.1          119 
 71.12         141 
 71.14         140 
 71.16         159 
 71.18         217 
 71.2          227 
 71.22         252 
 71.24         248 
 71.26         304 
 71.28         331 
 71.3          322 
 71.32         360 
 71.34         399 
 71.36         364 
 71.38         373 
 71.4          318 
 71.42         327 
 71.44         336 
 71.46         322 
 71.48         287 
 71.5          302 
 71.52         305 
 71.54         245 
 71.56         279 
 71.58         210 
 71.6          213 
 71.62         206 
 71.64         192 
 71.66         143 
 71.68         162 
 71.7          159 
 71.72         131 
 71.74         138 
 71.76         137 
 71.78         145 
 71.8          141 
 71.82         151 
 71.84         145 
 71.86         168 
 71.88         189 
 71.9          194 
 71.92         220 
 71.94         227 
 71.96         261 
 71.98         333 
 72            341 
 72.02         371 
 72.04         381 
 72.06         458 
 72.08         471 
 72.1          501 
 72.12         527 
 72.14         565 
 72.16         584 
 72.18         585 
 72.2          607 
 72.22         597 
 72.24         623 
 72.26         567 
 72.28         636 
 72.3          530 
 72.32         629 
 72.34         651 
 72.36         584 
 72.38         568 
 72.4          540 
 72.42         531 
 72.44         504 
 72.46         488 
 72.48         476 
 72.5          458 
 72.52         403 
 72.54         351 
 72.56         382 
 72.58         325 
 72.6          330 
 72.62         326 
 72.64         275 
 72.66         302 
 72.68         256 
 72.7          308 
 72.72         242 
 72.74         256 
 72.76         233 
 72.78         228 
 72.8          243 
 72.82         238 
 72.84         240 
 72.86         256 
 72.88         258 
 72.9          261 
 72.92         332 
 72.94         344 
 72.96         333 
 72.98         406 
 73            439 
 73.02         491 
 73.04         505 
 73.06         500 
 73.08         524 
 73.1          550 
 73.12         580 
 73.14         631 
 73.16         625 
 73.18         618 
 73.2          609 
 73.22         641 
 73.24         607 
 73.26         594 
 73.28         606 
 73.3          580 
 73.32         553 
 73.34         549 
 73.36         542 
 73.38         471 
 73.4          467 
 73.42         409 
 73.44         452 
 73.46         400 
 73.48         421 
 73.5          395 
 73.52         388 
 73.54         406 
 73.56         443 
 73.58         443 
 73.6          459 
 73.62         508 
 73.64         541 
 73.66         585 
 73.68         598 
 73.7          574 
 73.72         625 
 73.74         601 
 73.76         583 
 73.78         560 
 73.8          561 
 73.82         556 
 73.84         530 
 73.86         484 
 73.88         473 
 73.9          472 
 73.92         453 
 73.93999      424 
 73.96         394 
 73.98         365 
 74            356 
 74.02         318 
 74.04         306 
 74.06         301 
 74.08         259 
 74.1          241 
 74.12         230 
 74.14         182 
 74.16         165 
 74.18         156 
 74.2          144 
 74.22         131 
 74.24         130 
 74.26         117 
 74.28         123 
 74.3          106 
 74.32         103 
 74.34         98 
 74.36         113 
 74.38         88 
 74.4          96 
 74.42         92 
 74.43999      78 
 74.46         90 
 74.48         92 
 74.5          85 
 74.52         77 
 74.54         62 
 74.56         64 
 74.58         85 
 74.6          59 
 74.62         75 
 74.64         75 
 74.66         67 
 74.68         87 
 74.7          71 
 74.72         80 
 74.74         60 
 74.76         72 
 74.78         72 
 74.8          71 
 74.82         57 
 74.84         75 
 74.86         72 
 74.88         67 
 74.9          68 
 74.92         67 
 74.93999      70 
 74.96         73 
 74.98         73 
 75            80 
