LAGP-900-1  Original Data
 3151 
 12            393 
 12.02         384 
 12.04         416 
 12.06         404 
 12.08         443 
 12.1          472 
 12.12         466 
 12.14         434 
 12.16         428 
 12.18         463 
 12.2          401 
 12.22         416 
 12.24         441 
 12.26         394 
 12.28         423 
 12.3          421 
 12.32         412 
 12.34         429 
 12.36         404 
 12.38         378 
 12.4          400 
 12.42         415 
 12.44         393 
 12.46         374 
 12.48         431 
 12.5          344 
 12.52         349 
 12.54         402 
 12.56         394 
 12.58         392 
 12.6          385 
 12.62         403 
 12.64         380 
 12.66         373 
 12.68         388 
 12.7          382 
 12.72         412 
 12.74         393 
 12.76         364 
 12.78         394 
 12.8          348 
 12.82         399 
 12.84         386 
 12.86         366 
 12.88         349 
 12.9          359 
 12.92         373 
 12.94         354 
 12.96         340 
 12.98         378 
 13            330 
 13.02         357 
 13.04         352 
 13.06         397 
 13.08         335 
 13.1          349 
 13.12         366 
 13.14         350 
 13.16         312 
 13.18         363 
 13.2          366 
 13.22         320 
 13.24         334 
 13.26         332 
 13.28         355 
 13.3          334 
 13.32         335 
 13.34         346 
 13.36         327 
 13.38         309 
 13.4          327 
 13.42         310 
 13.44         319 
 13.46         331 
 13.48         301 
 13.5          282 
 13.52         333 
 13.54         339 
 13.56         304 
 13.58         335 
 13.6          280 
 13.62         284 
 13.64         301 
 13.66         291 
 13.68         306 
 13.7          319 
 13.72         281 
 13.74         287 
 13.76         283 
 13.78         295 
 13.8          300 
 13.82         283 
 13.84         277 
 13.86         253 
 13.88         248 
 13.9          293 
 13.92         248 
 13.94         276 
 13.96         286 
 13.98         258 
 14            265 
 14.02         262 
 14.04         274 
 14.06         272 
 14.08         258 
 14.1          260 
 14.12         243 
 14.14         293 
 14.16         277 
 14.18         275 
 14.2          271 
 14.22         275 
 14.24         284 
 14.26         242 
 14.28         253 
 14.3          300 
 14.32         264 
 14.34         283 
 14.36         258 
 14.38         272 
 14.4          297 
 14.42         300 
 14.44         322 
 14.46         316 
 14.48         372 
 14.5          332 
 14.52         347 
 14.54         366 
 14.56         421 
 14.58         428 
 14.6          470 
 14.62         521 
 14.64         559 
 14.66         619 
 14.68         659 
 14.7          691 
 14.72         816 
 14.74         921 
 14.76         1048 
 14.78         1150 
 14.8          1373 
 14.82         1527 
 14.84         1790 
 14.86         2036 
 14.88         2432 
 14.9          2894 
 14.92         3513 
 14.94         4103 
 14.96         4576 
 14.98         4985 
 15            4985 
 15.02         4522 
 15.04         3843 
 15.06         2741 
 15.08         1958 
 15.1          1123 
 15.12         686 
 15.14         452 
 15.16         360 
 15.18         318 
 15.2          288 
 15.22         255 
 15.24         244 
 15.26         252 
 15.28         207 
 15.3          228 
 15.32         225 
 15.34         210 
 15.36         215 
 15.38         210 
 15.4          218 
 15.42         206 
 15.44         209 
 15.46         221 
 15.48         199 
 15.5          241 
 15.52         212 
 15.54         197 
 15.56         192 
 15.58         203 
 15.6          218 
 15.62         224 
 15.64         197 
 15.66         202 
 15.68         208 
 15.7          212 
 15.72         205 
 15.74         188 
 15.76         196 
 15.78         188 
 15.8          199 
 15.82         177 
 15.84         204 
 15.86         182 
 15.88         185 
 15.9          207 
 15.92         189 
 15.94         190 
 15.96         201 
 15.98         181 
 16            198 
 16.02         200 
 16.04         175 
 16.06         191 
 16.08         179 
 16.1          175 
 16.12         180 
 16.14         186 
 16.16         186 
 16.18         164 
 16.2          195 
 16.22         178 
 16.24         171 
 16.26         184 
 16.28         167 
 16.3          164 
 16.32         163 
 16.34         183 
 16.36         146 
 16.38         166 
 16.4          170 
 16.42         164 
 16.44         175 
 16.46         199 
 16.48         176 
 16.5          178 
 16.52         193 
 16.54         171 
 16.56         173 
 16.58         161 
 16.6          193 
 16.62         161 
 16.64         204 
 16.66         191 
 16.68         174 
 16.7          165 
 16.72         171 
 16.74         189 
 16.76         163 
 16.78         178 
 16.8          150 
 16.82         165 
 16.84         165 
 16.86         154 
 16.88         138 
 16.9          162 
 16.92         153 
 16.94         160 
 16.96         190 
 16.98         157 
 17            165 
 17.02         156 
 17.04         161 
 17.06         155 
 17.08         167 
 17.1          135 
 17.12         170 
 17.14         170 
 17.16         183 
 17.18         152 
 17.2          193 
 17.22         175 
 17.24         146 
 17.26         166 
 17.28         189 
 17.3          185 
 17.32         200 
 17.34         146 
 17.36         163 
 17.38         163 
 17.4          154 
 17.42         170 
 17.44         144 
 17.46         145 
 17.48         138 
 17.5          161 
 17.52         167 
 17.54         176 
 17.56         156 
 17.58         142 
 17.6          162 
 17.62         165 
 17.64         144 
 17.66         134 
 17.68         168 
 17.7          164 
 17.72         133 
 17.74         153 
 17.76         168 
 17.78         161 
 17.8          155 
 17.82         139 
 17.84         174 
 17.86         169 
 17.88         162 
 17.9          158 
 17.92         144 
 17.94         159 
 17.96         154 
 17.98         145 
 18            142 
 18.02         148 
 18.04         142 
 18.06         156 
 18.08         165 
 18.1          183 
 18.12         161 
 18.14         148 
 18.16         161 
 18.18         159 
 18.2          150 
 18.22         164 
 18.24         161 
 18.26         165 
 18.28         162 
 18.3          163 
 18.32         130 
 18.34         157 
 18.36         153 
 18.38         143 
 18.4          146 
 18.42         162 
 18.44         129 
 18.46         159 
 18.48         166 
 18.5          144 
 18.52         137 
 18.54         150 
 18.56         129 
 18.58         153 
 18.6          130 
 18.62         159 
 18.64         142 
 18.66         135 
 18.68         148 
 18.7          163 
 18.72         148 
 18.74         151 
 18.76         148 
 18.78         124 
 18.8          154 
 18.82         157 
 18.84         148 
 18.86         135 
 18.88         121 
 18.9          143 
 18.92         130 
 18.94         149 
 18.96         138 
 18.98         148 
 19            129 
 19.02         144 
 19.04         149 
 19.06         163 
 19.08         143 
 19.1          128 
 19.12         134 
 19.14         166 
 19.16         145 
 19.18         131 
 19.2          143 
 19.22         128 
 19.24         137 
 19.26         138 
 19.28         154 
 19.3          128 
 19.32         152 
 19.34         140 
 19.36         134 
 19.38         144 
 19.4          134 
 19.42         151 
 19.44         130 
 19.46         140 
 19.48         148 
 19.5          146 
 19.52         135 
 19.54         128 
 19.56         143 
 19.58         144 
 19.6          136 
 19.62         126 
 19.64         129 
 19.66         161 
 19.68         137 
 19.7          122 
 19.72         148 
 19.74         134 
 19.76         135 
 19.78         144 
 19.8          140 
 19.82         146 
 19.84         149 
 19.86         145 
 19.88         143 
 19.9          131 
 19.92         150 
 19.94         141 
 19.96         139 
 19.98         134 
 20            146 
 20.02         159 
 20.04         142 
 20.06         129 
 20.08         139 
 20.1          158 
 20.12         155 
 20.14         138 
 20.16         150 
 20.18         175 
 20.2          176 
 20.22         166 
 20.24         143 
 20.26         170 
 20.28         178 
 20.3          190 
 20.32         170 
 20.34         183 
 20.36         197 
 20.38         234 
 20.4          224 
 20.42         206 
 20.44         236 
 20.46         215 
 20.48         262 
 20.5          235 
 20.52         243 
 20.54         244 
 20.56         245 
 20.58         241 
 20.6          264 
 20.62         286 
 20.64         284 
 20.66         321 
 20.68         348 
 20.7          340 
 20.72         357 
 20.74         431 
 20.76         449 
 20.78         527 
 20.8          595 
 20.82         615 
 20.84         827 
 20.86         890 
 20.88         1082 
 20.9          1216 
 20.92         1447 
 20.94         1780 
 20.96         2098 
 20.98         2631 
 21            2842 
 21.02         3687 
 21.04         4396 
 21.06         5447 
 21.08         6463 
 21.1          8239 
 21.12         9884 
 21.14         11840 
 21.16         13766 
 21.18         15392 
 21.2          16174 
 21.22         16002 
 21.24         14980 
 21.26         13330 
 21.28         11612 
 21.3          10334 
 21.32         9681 
 21.34         9808 
 21.36         10226 
 21.38         10689 
 21.4          10852 
 21.42         10145 
 21.44         8785 
 21.46         7108 
 21.48         5388 
 21.5          3713 
 21.52         2542 
 21.54         1692 
 21.56         1185 
 21.58         888 
 21.6          685 
 21.62         646 
 21.64         613 
 21.66         538 
 21.68         567 
 21.7          495 
 21.72         516 
 21.74         479 
 21.76         450 
 21.78         384 
 21.8          324 
 21.82         296 
 21.84         237 
 21.86         230 
 21.88         198 
 21.9          186 
 21.92         183 
 21.94         157 
 21.96         127 
 21.98         150 
 22            135 
 22.02         166 
 22.04         136 
 22.06         111 
 22.08         154 
 22.1          152 
 22.12         158 
 22.14         143 
 22.16         148 
 22.18         127 
 22.2          161 
 22.22         141 
 22.24         146 
 22.26         121 
 22.28         114 
 22.3          133 
 22.32         115 
 22.34         118 
 22.36         148 
 22.38         132 
 22.4          144 
 22.42         110 
 22.44         119 
 22.46         120 
 22.48         135 
 22.5          134 
 22.52         136 
 22.54         132 
 22.56         119 
 22.58         134 
 22.6          136 
 22.62         115 
 22.64         139 
 22.66         126 
 22.68         126 
 22.7          146 
 22.72         123 
 22.74         123 
 22.76         115 
 22.78         124 
 22.8          112 
 22.82         118 
 22.84         110 
 22.86         129 
 22.88         112 
 22.9          106 
 22.92         135 
 22.94         120 
 22.96         122 
 22.98         116 
 23            116 
 23.02         128 
 23.04         116 
 23.06         111 
 23.08         131 
 23.1          119 
 23.12         112 
 23.14         115 
 23.16         135 
 23.18         112 
 23.2          139 
 23.22         107 
 23.24         122 
 23.26         118 
 23.28         101 
 23.3          142 
 23.32         123 
 23.34         115 
 23.36         136 
 23.38         120 
 23.4          130 
 23.42         115 
 23.44         128 
 23.46         123 
 23.48         115 
 23.5          128 
 23.52         130 
 23.54         139 
 23.56         128 
 23.58         120 
 23.6          132 
 23.62         135 
 23.64         115 
 23.66         138 
 23.68         132 
 23.7          142 
 23.72         113 
 23.74         128 
 23.76         119 
 23.78         113 
 23.8          119 
 23.82         114 
 23.84         111 
 23.86         132 
 23.88         143 
 23.9          124 
 23.92         132 
 23.94         113 
 23.96         145 
 23.98         120 
 24            131 
 24.02         126 
 24.04         130 
 24.06         144 
 24.08         146 
 24.1          137 
 24.12         129 
 24.14         139 
 24.16         134 
 24.18         120 
 24.2          129 
 24.22         124 
 24.24         152 
 24.26         116 
 24.28         151 
 24.3          127 
 24.32         130 
 24.34         133 
 24.36         132 
 24.38         136 
 24.4          165 
 24.42         167 
 24.44         182 
 24.46         176 
 24.48         177 
 24.5          199 
 24.52         214 
 24.54         219 
 24.56         248 
 24.58         291 
 24.6          302 
 24.62         394 
 24.64         420 
 24.66         482 
 24.68         576 
 24.7          636 
 24.72         716 
 24.74         885 
 24.76         984 
 24.78         1213 
 24.8          1417 
 24.82         1686 
 24.84         2027 
 24.86         2582 
 24.88         3146 
 24.9          3923 
 24.92         5066 
 24.94         6221 
 24.96         8296 
 24.98         10216 
 25            13289 
 25.02         15919 
 25.04         18690 
 25.06         20153 
 25.08         20432 
 25.1          18899 
 25.12         15743 
 25.14         12416 
 25.16         8891 
 25.18         5736 
 25.2          3762 
 25.22         2240 
 25.24         1445 
 25.26         929 
 25.28         806 
 25.3          528 
 25.32         528 
 25.34         459 
 25.36         368 
 25.38         330 
 25.4          306 
 25.42         287 
 25.44         278 
 25.46         227 
 25.48         228 
 25.5          236 
 25.52         258 
 25.54         246 
 25.56         240 
 25.58         223 
 25.6          248 
 25.62         258 
 25.64         300 
 25.66         289 
 25.68         299 
 25.7          348 
 25.72         431 
 25.74         415 
 25.76         497 
 25.78         633 
 25.8          664 
 25.82         815 
 25.84         852 
 25.86         965 
 25.88         938 
 25.9          937 
 25.92         916 
 25.94         883 
 25.96         759 
 25.98         624 
 26            522 
 26.02         469 
 26.04         411 
 26.06         320 
 26.08         303 
 26.1          286 
 26.12         308 
 26.14         266 
 26.16         304 
 26.18         339 
 26.2          378 
 26.22         424 
 26.24         487 
 26.26         557 
 26.28         595 
 26.3          686 
 26.32         668 
 26.34         680 
 26.36         594 
 26.38         549 
 26.4          433 
 26.42         332 
 26.44         264 
 26.46         208 
 26.48         198 
 26.5          148 
 26.52         160 
 26.54         121 
 26.56         113 
 26.58         116 
 26.6          112 
 26.62         123 
 26.64         122 
 26.66         111 
 26.68         113 
 26.7          101 
 26.72         114 
 26.74         130 
 26.76         121 
 26.78         110 
 26.8          122 
 26.82         105 
 26.84         118 
 26.86         98 
 26.88         130 
 26.9          99 
 26.92         94 
 26.94         109 
 26.96         123 
 26.98         106 
 27            107 
 27.02         104 
 27.04         110 
 27.06         102 
 27.08         109 
 27.1          91 
 27.12         91 
 27.14         102 
 27.16         100 
 27.18         113 
 27.2          107 
 27.22         113 
 27.24         112 
 27.26         84 
 27.28         98 
 27.3          81 
 27.32         97 
 27.34         103 
 27.36         104 
 27.38         93 
 27.4          88 
 27.42         95 
 27.44         116 
 27.46         125 
 27.48         82 
 27.5          94 
 27.52         101 
 27.54         117 
 27.56         99 
 27.58         104 
 27.6          91 
 27.62         106 
 27.64         88 
 27.66         101 
 27.68         98 
 27.7          108 
 27.72         105 
 27.74         110 
 27.76         98 
 27.78         108 
 27.8          91 
 27.82         90 
 27.84         109 
 27.86         98 
 27.88         94 
 27.9          110 
 27.92         110 
 27.94         120 
 27.96         107 
 27.98         112 
 28            116 
 28.02         103 
 28.04         105 
 28.06         119 
 28.08         108 
 28.1          157 
 28.12         118 
 28.14         131 
 28.16         137 
 28.18         128 
 28.2          127 
 28.22         106 
 28.24         98 
 28.26         90 
 28.28         96 
 28.3          97 
 28.32         98 
 28.34         103 
 28.36         96 
 28.38         126 
 28.4          83 
 28.42         96 
 28.44         95 
 28.46         99 
 28.48         112 
 28.5          120 
 28.52         102 
 28.54         109 
 28.56         100 
 28.58         97 
 28.6          108 
 28.62         108 
 28.64         88 
 28.66         103 
 28.68         102 
 28.7          95 
 28.72         96 
 28.74         99 
 28.76         106 
 28.78         81 
 28.8          100 
 28.82         100 
 28.84         85 
 28.86         105 
 28.88         122 
 28.9          106 
 28.92         104 
 28.94         93 
 28.96         100 
 28.98         86 
 29            99 
 29.02         93 
 29.04         113 
 29.06         98 
 29.08         101 
 29.1          101 
 29.12         111 
 29.14         107 
 29.16         118 
 29.18         101 
 29.2          107 
 29.22         94 
 29.24         115 
 29.26         87 
 29.28         83 
 29.3          101 
 29.32         91 
 29.34         97 
 29.36         80 
 29.38         103 
 29.4          105 
 29.42         90 
 29.44         86 
 29.46         86 
 29.48         106 
 29.5          91 
 29.52         95 
 29.54         101 
 29.56         104 
 29.58         96 
 29.6          94 
 29.62         101 
 29.64         120 
 29.66         118 
 29.68         120 
 29.7          111 
 29.72         106 
 29.74         123 
 29.76         104 
 29.78         170 
 29.8          158 
 29.82         157 
 29.84         178 
 29.86         212 
 29.88         257 
 29.9          251 
 29.92         276 
 29.94         304 
 29.96         343 
 29.98         341 
 30            357 
 30.02         430 
 30.04         501 
 30.06         641 
 30.08         698 
 30.1          862 
 30.12         1020 
 30.14         1333 
 30.16         1652 
 30.18         2102 
 30.2          2649 
 30.22         3537 
 30.24         4680 
 30.26         5923 
 30.28         7653 
 30.3          9215 
 30.32         10473 
 30.34         11001 
 30.36         10964 
 30.38         10164 
 30.4          8445 
 30.42         6768 
 30.44         4871 
 30.46         3716 
 30.48         2423 
 30.5          1557 
 30.52         977 
 30.54         706 
 30.56         475 
 30.58         403 
 30.6          322 
 30.62         272 
 30.64         264 
 30.66         258 
 30.68         194 
 30.7          187 
 30.72         192 
 30.74         197 
 30.76         185 
 30.78         150 
 30.8          167 
 30.82         159 
 30.84         158 
 30.86         147 
 30.88         117 
 30.9          131 
 30.92         141 
 30.94         127 
 30.96         132 
 30.98         129 
 31            146 
 31.02         118 
 31.04         106 
 31.06         141 
 31.08         129 
 31.1          115 
 31.12         118 
 31.14         136 
 31.16         121 
 31.18         111 
 31.2          115 
 31.22         116 
 31.24         100 
 31.26         119 
 31.28         100 
 31.3          98 
 31.32         102 
 31.34         113 
 31.36         106 
 31.38         115 
 31.4          107 
 31.42         104 
 31.44         129 
 31.46         99 
 31.48         78 
 31.5          90 
 31.52         93 
 31.54         103 
 31.56         89 
 31.58         106 
 31.6          96 
 31.62         105 
 31.64         82 
 31.66         99 
 31.68         83 
 31.7          90 
 31.72         99 
 31.74         80 
 31.76         99 
 31.78         86 
 31.8          86 
 31.82         99 
 31.84         90 
 31.86         99 
 31.88         93 
 31.9          91 
 31.92         91 
 31.94         81 
 31.96         99 
 31.98         96 
 32            82 
 32.02         107 
 32.04         86 
 32.06         102 
 32.08         93 
 32.1          75 
 32.12         95 
 32.14         102 
 32.16         88 
 32.18         88 
 32.2          86 
 32.22         84 
 32.24         85 
 32.26         108 
 32.28         97 
 32.3          86 
 32.32         102 
 32.34         94 
 32.36         88 
 32.38         70 
 32.4          84 
 32.42         101 
 32.44         85 
 32.46         102 
 32.48         92 
 32.5          94 
 32.52         74 
 32.54         100 
 32.56         100 
 32.58         93 
 32.6          97 
 32.62         94 
 32.64         114 
 32.66         112 
 32.68         101 
 32.7          98 
 32.72         105 
 32.74         95 
 32.76         117 
 32.78         133 
 32.8          124 
 32.82         134 
 32.84         138 
 32.86         142 
 32.88         135 
 32.9          166 
 32.92         197 
 32.94         200 
 32.96         205 
 32.98         254 
 33            245 
 33.02         270 
 33.04         322 
 33.06         368 
 33.08         463 
 33.1          561 
 33.12         684 
 33.14         913 
 33.16         1100 
 33.18         1440 
 33.2          1884 
 33.22         2236 
 33.24         2787 
 33.26         3251 
 33.28         3396 
 33.3          3455 
 33.32         3326 
 33.34         2991 
 33.36         2535 
 33.38         2162 
 33.4          1759 
 33.42         1376 
 33.44         1011 
 33.46         834 
 33.48         666 
 33.5          568 
 33.52         473 
 33.54         481 
 33.56         525 
 33.58         471 
 33.6          532 
 33.62         552 
 33.64         634 
 33.66         730 
 33.68         853 
 33.7          1080 
 33.72         1259 
 33.74         1618 
 33.76         2031 
 33.78         2576 
 33.8          3284 
 33.82         4093 
 33.84         4861 
 33.86         5777 
 33.88         6426 
 33.9          6732 
 33.92         6736 
 33.94         6530 
 33.96         5687 
 33.98         4916 
 34            3798 
 34.02         3002 
 34.04         2111 
 34.06         1596 
 34.08         1042 
 34.1          749 
 34.12         532 
 34.14         384 
 34.16         359 
 34.18         249 
 34.2          224 
 34.22         202 
 34.24         178 
 34.26         170 
 34.28         142 
 34.3          149 
 34.32         152 
 34.34         146 
 34.36         146 
 34.38         132 
 34.4          139 
 34.42         111 
 34.44         130 
 34.46         134 
 34.48         120 
 34.5          107 
 34.52         96 
 34.54         106 
 34.56         119 
 34.58         98 
 34.6          108 
 34.62         104 
 34.64         122 
 34.66         94 
 34.68         109 
 34.7          96 
 34.72         115 
 34.74         95 
 34.76         93 
 34.78         88 
 34.8          87 
 34.82         91 
 34.84         98 
 34.86         93 
 34.88         94 
 34.9          97 
 34.92         85 
 34.94         94 
 34.96         88 
 34.98         90 
 35            88 
 35.02         80 
 35.04         86 
 35.06         103 
 35.08         100 
 35.1          71 
 35.12         83 
 35.14         96 
 35.16         80 
 35.18         82 
 35.2          73 
 35.22         80 
 35.24         104 
 35.26         89 
 35.28         96 
 35.3          77 
 35.32         98 
 35.34         74 
 35.36         83 
 35.38         74 
 35.4          91 
 35.42         88 
 35.44         84 
 35.46         92 
 35.48         87 
 35.5          75 
 35.52         92 
 35.54         95 
 35.56         99 
 35.58         100 
 35.6          81 
 35.62         91 
 35.64         104 
 35.66         112 
 35.68         119 
 35.7          123 
 35.72         115 
 35.74         133 
 35.76         132 
 35.78         140 
 35.8          134 
 35.82         120 
 35.84         120 
 35.86         135 
 35.88         131 
 35.9          135 
 35.92         148 
 35.94         135 
 35.96         136 
 35.98         138 
 36            107 
 36.02         110 
 36.04         108 
 36.06         104 
 36.08         81 
 36.1          89 
 36.12         93 
 36.14         106 
 36.16         94 
 36.18         105 
 36.2          110 
 36.22         137 
 36.24         122 
 36.26         126 
 36.28         100 
 36.3          95 
 36.32         125 
 36.34         90 
 36.36         92 
 36.38         99 
 36.4          86 
 36.42         110 
 36.44         85 
 36.46         88 
 36.48         85 
 36.5          90 
 36.52         83 
 36.54         85 
 36.56         100 
 36.58         83 
 36.6          91 
 36.62         90 
 36.64         92 
 36.66         93 
 36.68         95 
 36.7          106 
 36.72         96 
 36.74         85 
 36.76         100 
 36.78         110 
 36.8          104 
 36.82         123 
 36.84         98 
 36.86         101 
 36.88         99 
 36.9          120 
 36.92         129 
 36.94         134 
 36.96         149 
 36.98         173 
 37            187 
 37.02         176 
 37.04         221 
 37.06         232 
 37.08         246 
 37.1          274 
 37.12         291 
 37.14         302 
 37.16         324 
 37.18         375 
 37.2          353 
 37.22         428 
 37.24         469 
 37.26         535 
 37.28         642 
 37.3          856 
 37.32         1032 
 37.34         1324 
 37.36         1769 
 37.38         2250 
 37.4          2898 
 37.42         3629 
 37.44         4270 
 37.46         4948 
 37.48         5275 
 37.5          5554 
 37.52         5795 
 37.54         5843 
 37.56         5604 
 37.58         5570 
 37.6          4900 
 37.62         4354 
 37.64         3694 
 37.66         3117 
 37.68         2574 
 37.7          2076 
 37.72         1594 
 37.74         1167 
 37.76         950 
 37.78         677 
 37.8          576 
 37.82         420 
 37.84         334 
 37.86         332 
 37.88         315 
 37.9          261 
 37.92         293 
 37.94         262 
 37.96         273 
 37.98         239 
 38            239 
 38.02         234 
 38.04         199 
 38.06         218 
 38.08         188 
 38.1          186 
 38.12         163 
 38.14         151 
 38.16         155 
 38.18         139 
 38.2          142 
 38.22         112 
 38.24         98 
 38.26         105 
 38.28         100 
 38.3          95 
 38.32         101 
 38.34         89 
 38.36         96 
 38.38         103 
 38.4          92 
 38.42         94 
 38.44         89 
 38.46         90 
 38.48         99 
 38.5          84 
 38.52         91 
 38.54         81 
 38.56         103 
 38.58         101 
 38.6          84 
 38.62         104 
 38.64         84 
 38.66         98 
 38.68         104 
 38.7          97 
 38.72         83 
 38.74         99 
 38.76         99 
 38.78         101 
 38.8          82 
 38.82         98 
 38.84         90 
 38.86         101 
 38.88         112 
 38.9          122 
 38.92         137 
 38.94         124 
 38.96         135 
 38.98         138 
 39            113 
 39.02         107 
 39.04         87 
 39.06         123 
 39.08         119 
 39.1          90 
 39.12         90 
 39.14         102 
 39.16         95 
 39.18         94 
 39.2          92 
 39.22         96 
 39.24         109 
 39.26         113 
 39.28         130 
 39.3          130 
 39.32         114 
 39.34         147 
 39.36         141 
 39.38         155 
 39.4          147 
 39.42         152 
 39.44         139 
 39.46         148 
 39.48         131 
 39.5          115 
 39.52         124 
 39.54         118 
 39.56         135 
 39.58         150 
 39.6          108 
 39.62         102 
 39.64         125 
 39.66         137 
 39.68         132 
 39.7          126 
 39.72         146 
 39.74         144 
 39.76         151 
 39.78         174 
 39.8          199 
 39.82         207 
 39.84         215 
 39.86         246 
 39.88         257 
 39.9          230 
 39.92         277 
 39.94         246 
 39.96         219 
 39.98         222 
 40            213 
 40.02         200 
 40.04         177 
 40.06         140 
 40.08         138 
 40.1          118 
 40.12         102 
 40.14         117 
 40.16         100 
 40.18         120 
 40.2          94 
 40.22         93 
 40.24         91 
 40.26         86 
 40.28         94 
 40.3          68 
 40.32         70 
 40.34         93 
 40.36         104 
 40.38         75 
 40.4          85 
 40.42         82 
 40.44         76 
 40.46         91 
 40.48         102 
 40.5          80 
 40.52         105 
 40.54         88 
 40.56         78 
 40.58         71 
 40.6          89 
 40.62         88 
 40.64         73 
 40.66         101 
 40.68         101 
 40.7          73 
 40.72         80 
 40.74         73 
 40.76         74 
 40.78         79 
 40.8          78 
 40.82         77 
 40.84         78 
 40.86         94 
 40.88         94 
 40.9          77 
 40.92         82 
 40.94         87 
 40.96         59 
 40.98         83 
 41            70 
 41.02         90 
 41.04         89 
 41.06         90 
 41.08         63 
 41.1          89 
 41.12         94 
 41.14         78 
 41.16         76 
 41.18         88 
 41.2          79 
 41.22         90 
 41.24         76 
 41.26         74 
 41.28         99 
 41.3          91 
 41.32         78 
 41.34         79 
 41.36         82 
 41.38         77 
 41.4          93 
 41.42         102 
 41.44         95 
 41.46         98 
 41.48         115 
 41.5          103 
 41.52         110 
 41.54         114 
 41.56         116 
 41.58         101 
 41.6          123 
 41.62         125 
 41.64         100 
 41.66         128 
 41.68         149 
 41.7          148 
 41.72         120 
 41.74         129 
 41.76         139 
 41.78         123 
 41.8          121 
 41.82         135 
 41.84         107 
 41.86         103 
 41.88         93 
 41.9          92 
 41.92         88 
 41.94         106 
 41.96         91 
 41.98         92 
 42            100 
 42.02         86 
 42.04         106 
 42.06         91 
 42.08         106 
 42.1          103 
 42.12         112 
 42.14         80 
 42.16         96 
 42.18         88 
 42.2          92 
 42.22         95 
 42.24         89 
 42.26         86 
 42.28         83 
 42.3          79 
 42.32         90 
 42.34         83 
 42.36         73 
 42.38         85 
 42.4          97 
 42.42         84 
 42.44         64 
 42.46         94 
 42.48         82 
 42.5          83 
 42.52         89 
 42.54         86 
 42.56         79 
 42.58         88 
 42.6          80 
 42.62         82 
 42.64         98 
 42.66         84 
 42.68         77 
 42.7          75 
 42.72         80 
 42.74         86 
 42.76         87 
 42.78         93 
 42.8          88 
 42.82         109 
 42.84         97 
 42.86         83 
 42.88         100 
 42.9          106 
 42.92         92 
 42.94         107 
 42.96         125 
 42.98         117 
 43            140 
 43.02         153 
 43.04         148 
 43.06         186 
 43.08         232 
 43.1          230 
 43.12         236 
 43.14         326 
 43.16         390 
 43.18         461 
 43.2          544 
 43.22         624 
 43.24         677 
 43.26         670 
 43.28         711 
 43.3          654 
 43.32         618 
 43.34         564 
 43.36         502 
 43.38         461 
 43.4          428 
 43.42         342 
 43.44         301 
 43.46         255 
 43.48         190 
 43.5          155 
 43.52         160 
 43.54         109 
 43.56         114 
 43.58         122 
 43.6          129 
 43.62         121 
 43.64         105 
 43.66         128 
 43.68         123 
 43.7          98 
 43.72         99 
 43.74         120 
 43.76         109 
 43.78         129 
 43.8          101 
 43.82         95 
 43.84         99 
 43.86         94 
 43.88         83 
 43.9          102 
 43.92         86 
 43.94         97 
 43.96         92 
 43.98         88 
 44            77 
 44.02         80 
 44.04         75 
 44.06         103 
 44.08         72 
 44.1          91 
 44.12         77 
 44.14         95 
 44.16         87 
 44.18         71 
 44.2          82 
 44.22         90 
 44.24         98 
 44.26         88 
 44.28         93 
 44.3          81 
 44.32         109 
 44.34         83 
 44.36         82 
 44.38         84 
 44.4          93 
 44.42         100 
 44.44         100 
 44.46         83 
 44.48         78 
 44.5          107 
 44.52         79 
 44.54         85 
 44.56         84 
 44.58         78 
 44.6          91 
 44.62         73 
 44.64         102 
 44.66         110 
 44.68         98 
 44.7          107 
 44.72         96 
 44.74         99 
 44.76         122 
 44.78         132 
 44.8          117 
 44.82         105 
 44.84         112 
 44.86         120 
 44.88         153 
 44.9          138 
 44.92         130 
 44.94         124 
 44.96         133 
 44.98         160 
 45            191 
 45.02         189 
 45.04         183 
 45.06         211 
 45.08         296 
 45.1          320 
 45.12         369 
 45.14         422 
 45.16         477 
 45.18         562 
 45.2          672 
 45.22         726 
 45.24         843 
 45.26         892 
 45.28         929 
 45.3          952 
 45.32         1027 
 45.34         914 
 45.36         869 
 45.38         857 
 45.4          806 
 45.42         793 
 45.44         763 
 45.46         711 
 45.48         672 
 45.5          696 
 45.52         677 
 45.54         553 
 45.56         517 
 45.58         490 
 45.6          490 
 45.62         489 
 45.64         518 
 45.66         567 
 45.68         607 
 45.7          684 
 45.72         708 
 45.74         752 
 45.76         796 
 45.78         773 
 45.8          800 
 45.82         724 
 45.84         646 
 45.86         653 
 45.88         573 
 45.9          525 
 45.92         478 
 45.94         434 
 45.96         323 
 45.98         321 
 46            288 
 46.02         249 
 46.04         239 
 46.06         235 
 46.08         193 
 46.1          177 
 46.12         173 
 46.14         215 
 46.16         196 
 46.18         244 
 46.2          237 
 46.22         285 
 46.24         303 
 46.26         340 
 46.28         365 
 46.3          382 
 46.32         356 
 46.34         416 
 46.36         428 
 46.38         443 
 46.4          479 
 46.42         543 
 46.44         532 
 46.46         559 
 46.48         509 
 46.5          470 
 46.52         474 
 46.54         410 
 46.56         360 
 46.58         341 
 46.6          314 
 46.62         255 
 46.64         234 
 46.66         196 
 46.68         148 
 46.7          131 
 46.72         126 
 46.74         127 
 46.76         101 
 46.78         93 
 46.8          87 
 46.82         81 
 46.84         100 
 46.86         85 
 46.88         90 
 46.9          89 
 46.92         96 
 46.94         88 
 46.96         89 
 46.98         93 
 47            77 
 47.02         77 
 47.04         79 
 47.06         69 
 47.08         92 
 47.1          70 
 47.12         81 
 47.14         79 
 47.16         71 
 47.18         76 
 47.2          90 
 47.22         73 
 47.24         69 
 47.26         75 
 47.28         70 
 47.3          100 
 47.32         81 
 47.34         70 
 47.36         83 
 47.38         80 
 47.4          71 
 47.42         65 
 47.44         61 
 47.46         75 
 47.48         79 
 47.5          75 
 47.52         81 
 47.54         69 
 47.56         72 
 47.58         81 
 47.6          72 
 47.62         82 
 47.64         80 
 47.66         72 
 47.68         81 
 47.7          80 
 47.72         81 
 47.74         81 
 47.76         76 
 47.78         76 
 47.8          100 
 47.82         65 
 47.84         89 
 47.86         87 
 47.88         91 
 47.9          79 
 47.92         82 
 47.94         82 
 47.96         76 
 47.98         83 
 48            93 
 48.02         89 
 48.04         90 
 48.06         96 
 48.08         88 
 48.1          112 
 48.12         111 
 48.14         103 
 48.16         101 
 48.18         126 
 48.2          108 
 48.22         112 
 48.24         109 
 48.26         127 
 48.28         152 
 48.3          157 
 48.32         159 
 48.34         158 
 48.36         175 
 48.38         167 
 48.4          197 
 48.42         200 
 48.44         240 
 48.46         266 
 48.48         268 
 48.5          299 
 48.52         363 
 48.54         357 
 48.56         435 
 48.58         513 
 48.6          640 
 48.62         750 
 48.64         895 
 48.66         1230 
 48.68         1517 
 48.7          1888 
 48.72         2379 
 48.74         2752 
 48.76         2949 
 48.78         3365 
 48.8          3343 
 48.82         3317 
 48.84         3192 
 48.86         2892 
 48.88         2709 
 48.9          2473 
 48.92         2247 
 48.94         2192 
 48.96         2068 
 48.98         1929 
 49            1967 
 49.02         1965 
 49.04         2173 
 49.06         2044 
 49.08         2085 
 49.1          1987 
 49.12         1831 
 49.14         1696 
 49.16         1534 
 49.18         1364 
 49.2          1264 
 49.22         1060 
 49.24         848 
 49.26         695 
 49.28         540 
 49.3          431 
 49.32         372 
 49.34         282 
 49.36         240 
 49.38         243 
 49.4          189 
 49.42         187 
 49.44         158 
 49.46         148 
 49.48         126 
 49.5          150 
 49.52         157 
 49.54         155 
 49.56         147 
 49.58         155 
 49.6          143 
 49.62         139 
 49.64         153 
 49.66         137 
 49.68         120 
 49.7          108 
 49.72         119 
 49.74         124 
 49.76         111 
 49.78         111 
 49.8          90 
 49.82         105 
 49.84         89 
 49.86         82 
 49.88         96 
 49.9          73 
 49.92         104 
 49.94         83 
 49.96         87 
 49.98         100 
 50            97 
 50.02         97 
 50.04         102 
 50.06         91 
 50.08         74 
 50.1          94 
 50.12         82 
 50.14         78 
 50.16         73 
 50.18         96 
 50.2          82 
 50.22         71 
 50.24         84 
 50.26         76 
 50.28         85 
 50.3          89 
 50.32         98 
 50.34         94 
 50.36         99 
 50.38         97 
 50.4          88 
 50.42         73 
 50.44         88 
 50.46         75 
 50.48         98 
 50.5          92 
 50.52         84 
 50.54         83 
 50.56         100 
 50.58         94 
 50.6          97 
 50.62         96 
 50.64         83 
 50.66         104 
 50.68         108 
 50.7          121 
 50.72         129 
 50.74         126 
 50.76         130 
 50.78         168 
 50.8          203 
 50.82         204 
 50.84         247 
 50.86         287 
 50.88         358 
 50.9          419 
 50.92         486 
 50.94         534 
 50.96         650 
 50.98         646 
 51            677 
 51.02         662 
 51.04         682 
 51.06         690 
 51.08         712 
 51.1          736 
 51.12         766 
 51.14         731 
 51.16         709 
 51.18         738 
 51.2          653 
 51.22         655 
 51.24         646 
 51.26         595 
 51.28         609 
 51.3          611 
 51.32         601 
 51.34         557 
 51.36         571 
 51.38         663 
 51.4          803 
 51.42         971 
 51.44         1185 
 51.46         1531 
 51.48         1855 
 51.5          2179 
 51.52         2433 
 51.54         2666 
 51.56         2657 
 51.58         2495 
 51.6          2389 
 51.62         2361 
 51.64         2311 
 51.66         2249 
 51.68         2187 
 51.7          2057 
 51.72         1848 
 51.74         1633 
 51.76         1409 
 51.78         1178 
 51.8          1059 
 51.82         913 
 51.84         736 
 51.86         711 
 51.88         636 
 51.9          510 
 51.92         441 
 51.94         356 
 51.96         308 
 51.98         243 
 52            185 
 52.02         182 
 52.04         173 
 52.06         172 
 52.08         131 
 52.1          116 
 52.12         129 
 52.14         102 
 52.16         113 
 52.18         98 
 52.2          106 
 52.22         104 
 52.24         104 
 52.26         80 
 52.28         82 
 52.3          101 
 52.32         107 
 52.34         99 
 52.36         82 
 52.38         100 
 52.4          74 
 52.42         104 
 52.44         88 
 52.46         94 
 52.48         96 
 52.5          104 
 52.52         91 
 52.54         85 
 52.56         79 
 52.58         88 
 52.6          71 
 52.62         86 
 52.64         86 
 52.66         108 
 52.68         75 
 52.7          97 
 52.72         92 
 52.74         79 
 52.76         80 
 52.78         81 
 52.8          78 
 52.82         87 
 52.84         91 
 52.86         83 
 52.88         97 
 52.9          89 
 52.92         95 
 52.94         90 
 52.96         101 
 52.98         103 
 53            96 
 53.02         102 
 53.04         124 
 53.06         129 
 53.08         136 
 53.1          110 
 53.12         124 
 53.14         144 
 53.16         138 
 53.18         140 
 53.2          189 
 53.22         185 
 53.24         229 
 53.26         188 
 53.28         231 
 53.3          232 
 53.32         260 
 53.34         290 
 53.36         291 
 53.38         299 
 53.4          291 
 53.42         263 
 53.44         291 
 53.46         316 
 53.48         259 
 53.5          254 
 53.52         222 
 53.54         255 
 53.56         232 
 53.58         228 
 53.6          186 
 53.62         179 
 53.64         169 
 53.66         148 
 53.68         137 
 53.7          135 
 53.72         120 
 53.74         139 
 53.76         114 
 53.78         110 
 53.8          102 
 53.82         100 
 53.84         99 
 53.86         90 
 53.88         77 
 53.9          80 
 53.92         68 
 53.94         77 
 53.96         73 
 53.98         82 
 54            84 
 54.02         86 
 54.04         101 
 54.06         87 
 54.08         118 
 54.1          101 
 54.12         102 
 54.14         94 
 54.16         112 
 54.18         101 
 54.2          101 
 54.22         108 
 54.24         111 
 54.26         119 
 54.28         98 
 54.3          118 
 54.32         90 
 54.34         115 
 54.36         90 
 54.38         87 
 54.4          88 
 54.42         77 
 54.44         92 
 54.46         88 
 54.48         75 
 54.5          86 
 54.52         91 
 54.54         89 
 54.56         65 
 54.58         79 
 54.6          88 
 54.62         90 
 54.64         75 
 54.66         79 
 54.68         68 
 54.7          85 
 54.72         73 
 54.74         80 
 54.76         80 
 54.78         81 
 54.8          79 
 54.82         78 
 54.84         81 
 54.86         78 
 54.88         71 
 54.9          80 
 54.92         76 
 54.94         80 
 54.96         84 
 54.98         85 
 55            79 
 55.02         84 
 55.04         70 
 55.06         71 
 55.08         77 
 55.1          73 
 55.12         91 
 55.14         60 
 55.16         87 
 55.18         71 
 55.2          83 
 55.22         90 
 55.24         105 
 55.26         110 
 55.28         87 
 55.3          83 
 55.32         101 
 55.34         84 
 55.36         93 
 55.38         104 
 55.4          125 
 55.42         113 
 55.44         116 
 55.46         126 
 55.48         106 
 55.5          141 
 55.52         150 
 55.54         132 
 55.56         193 
 55.58         197 
 55.6          231 
 55.62         227 
 55.64         281 
 55.66         354 
 55.68         425 
 55.7          543 
 55.72         688 
 55.74         806 
 55.76         907 
 55.78         946 
 55.8          956 
 55.82         981 
 55.84         958 
 55.86         879 
 55.88         948 
 55.9          977 
 55.92         1003 
 55.94         1111 
 55.96         1144 
 55.98         1274 
 56            1409 
 56.02         1509 
 56.04         1640 
 56.06         1715 
 56.08         1846 
 56.1          1848 
 56.12         1972 
 56.14         1951 
 56.16         1773 
 56.18         1735 
 56.2          1497 
 56.22         1428 
 56.24         1349 
 56.26         1217 
 56.28         986 
 56.3          886 
 56.32         803 
 56.34         639 
 56.36         496 
 56.38         388 
 56.4          332 
 56.42         289 
 56.44         227 
 56.46         224 
 56.48         176 
 56.5          148 
 56.52         123 
 56.54         129 
 56.56         129 
 56.58         129 
 56.6          118 
 56.62         122 
 56.64         107 
 56.66         102 
 56.68         97 
 56.7          86 
 56.72         82 
 56.74         111 
 56.76         109 
 56.78         97 
 56.8          81 
 56.82         94 
 56.84         86 
 56.86         114 
 56.88         88 
 56.9          77 
 56.92         72 
 56.94         89 
 56.96         105 
 56.98         92 
 57            90 
 57.02         91 
 57.04         92 
 57.06         81 
 57.08         70 
 57.1          75 
 57.12         85 
 57.14         76 
 57.16         78 
 57.18         69 
 57.2          66 
 57.22         80 
 57.24         78 
 57.26         85 
 57.28         63 
 57.3          90 
 57.32         77 
 57.34         85 
 57.36         84 
 57.38         81 
 57.4          79 
 57.42         69 
 57.44         92 
 57.46         66 
 57.48         87 
 57.5          77 
 57.52         82 
 57.54         75 
 57.56         92 
 57.58         82 
 57.6          97 
 57.62         79 
 57.64         72 
 57.66         99 
 57.68         83 
 57.7          84 
 57.72         81 
 57.74         92 
 57.76         98 
 57.78         107 
 57.8          93 
 57.82         113 
 57.84         99 
 57.86         93 
 57.88         134 
 57.9          108 
 57.92         121 
 57.94         120 
 57.96         163 
 57.98         155 
 58            190 
 58.02         181 
 58.04         199 
 58.06         242 
 58.08         244 
 58.1          278 
 58.12         315 
 58.14         381 
 58.16         380 
 58.18         378 
 58.2          411 
 58.22         436 
 58.24         438 
 58.26         437 
 58.28         459 
 58.3          486 
 58.32         472 
 58.34         469 
 58.36         443 
 58.38         434 
 58.4          464 
 58.42         390 
 58.44         469 
 58.46         458 
 58.48         489 
 58.5          564 
 58.52         624 
 58.54         789 
 58.56         928 
 58.58         1160 
 58.6          1409 
 58.62         1540 
 58.64         1751 
 58.66         1852 
 58.68         1887 
 58.7          1835 
 58.72         1806 
 58.74         1790 
 58.76         1831 
 58.78         1993 
 58.8          2235 
 58.82         2447 
 58.84         2695 
 58.86         2964 
 58.88         3200 
 58.9          3430 
 58.92         3592 
 58.94         3523 
 58.96         3630 
 58.98         3542 
 59            3571 
 59.02         3337 
 59.04         3090 
 59.06         3060 
 59.08         2805 
 59.1          2633 
 59.12         2265 
 59.14         2109 
 59.16         1769 
 59.18         1576 
 59.2          1286 
 59.22         1059 
 59.24         911 
 59.26         738 
 59.28         635 
 59.3          535 
 59.32         428 
 59.34         365 
 59.36         298 
 59.38         291 
 59.4          239 
 59.42         259 
 59.44         227 
 59.46         198 
 59.48         189 
 59.5          170 
 59.52         192 
 59.54         168 
 59.56         167 
 59.58         138 
 59.6          128 
 59.62         136 
 59.64         135 
 59.66         130 
 59.68         111 
 59.7          119 
 59.72         143 
 59.74         119 
 59.76         118 
 59.78         144 
 59.8          106 
 59.82         98 
 59.84         105 
 59.86         99 
 59.88         121 
 59.9          116 
 59.92         94 
 59.94         111 
 59.96         104 
 59.98         108 
 60            109 
 60.02         118 
 60.04         95 
 60.06         125 
 60.08         112 
 60.1          115 
 60.12         111 
 60.14         146 
 60.16         144 
 60.18         146 
 60.2          179 
 60.22         209 
 60.24         209 
 60.26         256 
 60.28         256 
 60.3          261 
 60.32         288 
 60.34         284 
 60.36         262 
 60.38         274 
 60.4          261 
 60.42         269 
 60.44         305 
 60.46         324 
 60.48         391 
 60.5          489 
 60.52         508 
 60.54         607 
 60.56         678 
 60.58         783 
 60.6          765 
 60.62         829 
 60.64         808 
 60.66         797 
 60.68         825 
 60.7          750 
 60.72         780 
 60.74         712 
 60.76         654 
 60.78         636 
 60.8          615 
 60.82         528 
 60.84         434 
 60.86         424 
 60.88         388 
 60.9          308 
 60.92         280 
 60.94         221 
 60.96         212 
 60.98         170 
 61            154 
 61.02         111 
 61.04         119 
 61.06         120 
 61.08         104 
 61.1          109 
 61.12         90 
 61.14         93 
 61.16         93 
 61.18         83 
 61.2          100 
 61.22         76 
 61.24         87 
 61.26         76 
 61.28         100 
 61.3          96 
 61.32         81 
 61.34         73 
 61.36         82 
 61.38         82 
 61.4          77 
 61.42         87 
 61.44         86 
 61.46         87 
 61.48         79 
 61.5          89 
 61.52         90 
 61.54         92 
 61.56         92 
 61.58         85 
 61.6          93 
 61.62         93 
 61.64         101 
 61.66         83 
 61.68         88 
 61.7          106 
 61.72         77 
 61.74         74 
 61.76         74 
 61.78         80 
 61.8          85 
 61.82         90 
 61.84         87 
 61.86         91 
 61.88         84 
 61.9          92 
 61.92         79 
 61.94         88 
 61.96         61 
 61.98         62 
 62            71 
 62.02         66 
 62.04         76 
 62.06         76 
 62.08         82 
 62.1          74 
 62.12         72 
 62.14         69 
 62.16         75 
 62.18         82 
 62.2          70 
 62.22         68 
 62.24         75 
 62.26         58 
 62.28         73 
 62.3          73 
 62.32         63 
 62.34         73 
 62.36         72 
 62.38         78 
 62.4          81 
 62.42         68 
 62.44         64 
 62.46         84 
 62.48         76 
 62.5          82 
 62.52         73 
 62.54         77 
 62.56         73 
 62.58         82 
 62.6          67 
 62.62         63 
 62.64         69 
 62.66         65 
 62.68         76 
 62.7          91 
 62.72         79 
 62.74         77 
 62.76         65 
 62.78         74 
 62.8          78 
 62.82         76 
 62.84         89 
 62.86         97 
 62.88         102 
 62.9          115 
 62.92         106 
 62.94         115 
 62.96         121 
 62.98         161 
 63            159 
 63.02         188 
 63.04         206 
 63.06         230 
 63.08         329 
 63.1          356 
 63.12         474 
 63.14         589 
 63.16         652 
 63.18         740 
 63.2          857 
 63.22         852 
 63.24         823 
 63.26         725 
 63.28         633 
 63.3          601 
 63.32         587 
 63.34         591 
 63.36         553 
 63.38         516 
 63.4          509 
 63.42         446 
 63.44         373 
 63.46         296 
 63.48         268 
 63.5          179 
 63.52         148 
 63.54         141 
 63.56         129 
 63.58         99 
 63.6          123 
 63.62         105 
 63.64         115 
 63.66         96 
 63.68         90 
 63.7          95 
 63.72         89 
 63.74         71 
 63.76         81 
 63.78         80 
 63.8          79 
 63.82         75 
 63.84         75 
 63.86         75 
 63.88         80 
 63.9          84 
 63.92         89 
 63.94         84 
 63.96         77 
 63.98         81 
 64            107 
 64.02         80 
 64.04         73 
 64.06         90 
 64.08         90 
 64.1          84 
 64.12         76 
 64.14         96 
 64.16         106 
 64.18         95 
 64.2          104 
 64.22         91 
 64.24         99 
 64.26         86 
 64.28         128 
 64.3          95 
 64.32         97 
 64.34         114 
 64.36         137 
 64.38         138 
 64.4          140 
 64.42         128 
 64.44         139 
 64.46         156 
 64.48         155 
 64.5          185 
 64.52         190 
 64.54         209 
 64.56         224 
 64.58         245 
 64.6          271 
 64.62         290 
 64.64         257 
 64.66         308 
 64.68         318 
 64.7          332 
 64.72         357 
 64.74         345 
 64.76         342 
 64.78         369 
 64.8          406 
 64.82         424 
 64.84         452 
 64.86         498 
 64.88         523 
 64.9          531 
 64.92         593 
 64.94         596 
 64.96         596 
 64.98         554 
 65            599 
 65.02         529 
 65.04         565 
 65.06         624 
 65.08         695 
 65.1          741 
 65.12         794 
 65.14         994 
 65.16         1082 
 65.18         1249 
 65.2          1365 
 65.22         1410 
 65.24         1366 
 65.26         1362 
 65.28         1344 
 65.3          1227 
 65.32         1158 
 65.34         1214 
 65.36         1177 
 65.38         1068 
 65.4          1125 
 65.42         1165 
 65.44         1264 
 65.46         1219 
 65.48         1344 
 65.5          1292 
 65.52         1394 
 65.54         1387 
 65.56         1349 
 65.58         1277 
 65.6          1171 
 65.62         1081 
 65.64         926 
 65.66         955 
 65.68         912 
 65.7          918 
 65.72         835 
 65.74         764 
 65.76         694 
 65.78         657 
 65.8          602 
 65.82         419 
 65.84         369 
 65.86         321 
 65.88         264 
 65.9          243 
 65.92         250 
 65.94         204 
 65.96         190 
 65.98         196 
 66            181 
 66.02         166 
 66.04         147 
 66.06         157 
 66.08         139 
 66.1          131 
 66.12         120 
 66.14         92 
 66.16         113 
 66.18         108 
 66.2          120 
 66.22         106 
 66.24         98 
 66.26         88 
 66.28         101 
 66.3          94 
 66.32         75 
 66.34         93 
 66.36         95 
 66.38         91 
 66.4          91 
 66.42         78 
 66.44         95 
 66.46         82 
 66.48         93 
 66.5          75 
 66.52         91 
 66.54         80 
 66.56         89 
 66.58         96 
 66.6          80 
 66.62         103 
 66.64         98 
 66.66         94 
 66.68         85 
 66.7          99 
 66.72         82 
 66.74         89 
 66.76         94 
 66.78         91 
 66.8          111 
 66.82         78 
 66.84         108 
 66.86         113 
 66.88         98 
 66.9          104 
 66.92         121 
 66.94         104 
 66.96         109 
 66.98         110 
 67            115 
 67.02         129 
 67.04         120 
 67.06         126 
 67.08         130 
 67.1          127 
 67.12         152 
 67.14         130 
 67.16         111 
 67.18         123 
 67.2          128 
 67.22         144 
 67.24         138 
 67.26         130 
 67.28         145 
 67.3          135 
 67.32         132 
 67.34         137 
 67.36         159 
 67.38         149 
 67.4          135 
 67.42         177 
 67.44         185 
 67.46         237 
 67.48         267 
 67.5          334 
 67.52         346 
 67.54         403 
 67.56         428 
 67.58         450 
 67.6          475 
 67.62         512 
 67.64         501 
 67.66         519 
 67.68         616 
 67.7          667 
 67.72         738 
 67.74         839 
 67.76         966 
 67.78         1036 
 67.8          1140 
 67.82         1165 
 67.84         1142 
 67.86         1056 
 67.88         1063 
 67.9          1017 
 67.92         935 
 67.94         930 
 67.96         880 
 67.98         890 
 68            755 
 68.02         790 
 68.04         727 
 68.06         630 
 68.08         594 
 68.1          535 
 68.12         438 
 68.14         404 
 68.16         326 
 68.18         295 
 68.2          252 
 68.22         240 
 68.24         202 
 68.26         178 
 68.28         168 
 68.3          164 
 68.32         142 
 68.34         133 
 68.36         141 
 68.38         138 
 68.4          121 
 68.42         121 
 68.44         143 
 68.46         133 
 68.48         150 
 68.5          113 
 68.52         153 
 68.54         151 
 68.56         180 
 68.58         151 
 68.6          149 
 68.62         143 
 68.64         181 
 68.66         184 
 68.68         194 
 68.7          238 
 68.72         258 
 68.74         246 
 68.76         284 
 68.78         297 
 68.8          383 
 68.82         380 
 68.84         421 
 68.86         468 
 68.88         497 
 68.9          542 
 68.92         594 
 68.94         625 
 68.96         650 
 68.98         634 
 69            693 
 69.02         662 
 69.04         662 
 69.06         663 
 69.08         712 
 69.1          651 
 69.12         681 
 69.14         625 
 69.16         586 
 69.18         599 
 69.2          598 
 69.22         540 
 69.24         543 
 69.26         493 
 69.28         507 
 69.3          488 
 69.32         431 
 69.34         487 
 69.36         490 
 69.38         445 
 69.4          493 
 69.42         547 
 69.44         557 
 69.46         640 
 69.48         646 
 69.5          685 
 69.52         770 
 69.54         767 
 69.56         802 
 69.58         801 
 69.6          762 
 69.62         665 
 69.64         612 
 69.66         520 
 69.68         535 
 69.7          532 
 69.72         486 
 69.74         446 
 69.76         447 
 69.78         409 
 69.8          313 
 69.82         306 
 69.84         254 
 69.86         191 
 69.88         204 
 69.9          152 
 69.92         138 
 69.94         118 
 69.96         116 
 69.98         111 
 70            131 
 70.02         109 
 70.04         100 
 70.06         119 
 70.08         95 
 70.1          95 
 70.12         114 
 70.14         106 
 70.16         87 
 70.18         110 
 70.2          98 
 70.22         82 
 70.24         101 
 70.26         84 
 70.28         81 
 70.3          62 
 70.32         77 
 70.34         98 
 70.36         77 
 70.38         71 
 70.4          73 
 70.42         91 
 70.44         68 
 70.46         85 
 70.48         84 
 70.5          81 
 70.52         70 
 70.54         67 
 70.56         83 
 70.58         82 
 70.6          67 
 70.62         62 
 70.64         82 
 70.66         93 
 70.68         80 
 70.7          71 
 70.72         65 
 70.74         78 
 70.76         83 
 70.78         88 
 70.8          73 
 70.82         74 
 70.84         77 
 70.86         72 
 70.88         67 
 70.9          71 
 70.92         86 
 70.94         92 
 70.96         69 
 70.98         73 
 71            102 
 71.02         92 
 71.04         97 
 71.06         98 
 71.08         98 
 71.1          98 
 71.12         114 
 71.14         102 
 71.16         102 
 71.18         123 
 71.2          124 
 71.22         151 
 71.24         149 
 71.26         190 
 71.28         200 
 71.3          232 
 71.32         253 
 71.34         297 
 71.36         360 
 71.38         357 
 71.4          384 
 71.42         390 
 71.44         418 
 71.46         387 
 71.48         412 
 71.5          389 
 71.52         415 
 71.54         384 
 71.56         387 
 71.58         328 
 71.6          346 
 71.62         296 
 71.64         297 
 71.66         287 
 71.68         276 
 71.7          244 
 71.72         232 
 71.74         212 
 71.76         216 
 71.78         189 
 71.8          200 
 71.82         175 
 71.84         195 
 71.86         228 
 71.88         241 
 71.9          281 
 71.92         359 
 71.94         420 
 71.96         448 
 71.98         558 
 72            518 
 72.02         541 
 72.04         566 
 72.06         570 
 72.08         592 
 72.1          564 
 72.12         539 
 72.14         545 
 72.16         491 
 72.18         526 
 72.2          485 
 72.22         461 
 72.24         444 
 72.26         415 
 72.28         393 
 72.3          390 
 72.32         384 
 72.34         421 
 72.36         339 
 72.38         345 
 72.4          356 
 72.42         326 
 72.44         317 
 72.46         315 
 72.48         344 
 72.5          370 
 72.52         419 
 72.54         379 
 72.56         367 
 72.58         410 
 72.6          377 
 72.62         378 
 72.64         416 
 72.66         401 
 72.68         374 
 72.7          376 
 72.72         420 
 72.74         382 
 72.76         388 
 72.78         338 
 72.8          358 
 72.82         354 
 72.84         285 
 72.86         341 
 72.88         298 
 72.9          284 
 72.92         312 
 72.94         277 
 72.96         284 
 72.98         254 
 73            263 
 73.02         287 
 73.04         298 
 73.06         329 
 73.08         348 
 73.1          386 
 73.12         406 
 73.14         489 
 73.16         518 
 73.18         514 
 73.2          590 
 73.22         637 
 73.24         687 
 73.26         690 
 73.28         718 
 73.3          771 
 73.32         763 
 73.34         741 
 73.36         746 
 73.38         680 
 73.4          706 
 73.42         655 
 73.44         694 
 73.46         651 
 73.48         690 
 73.5          695 
 73.52         694 
 73.54         717 
 73.56         710 
 73.58         739 
 73.6          693 
 73.62         713 
 73.64         781 
 73.66         702 
 73.68         776 
 73.7          731 
 73.72         720 
 73.74         738 
 73.76         728 
 73.78         652 
 73.8          668 
 73.82         623 
 73.84         557 
 73.86         542 
 73.88         467 
 73.9          463 
 73.92         454 
 73.93999      406 
 73.96         396 
 73.98         394 
 74            338 
 74.02         296 
 74.04         266 
 74.06         230 
 74.08         240 
 74.1          214 
 74.12         155 
 74.14         164 
 74.16         168 
 74.18         150 
 74.2          158 
 74.22         126 
 74.24         112 
 74.26         126 
 74.28         97 
 74.3          111 
 74.32         119 
 74.34         96 
 74.36         108 
 74.38         93 
 74.4          99 
 74.42         72 
 74.43999      80 
 74.46         81 
 74.48         83 
 74.5          86 
 74.52         71 
 74.54         78 
 74.56         72 
 74.58         70 
 74.6          73 
 74.62         83 
 74.64         73 
 74.66         70 
 74.68         74 
 74.7          71 
 74.72         86 
 74.74         86 
 74.76         78 
 74.78         63 
 74.8          84 
 74.82         60 
 74.84         78 
 74.86         76 
 74.88         76 
 74.9          86 
 74.92         108 
 74.93999      84 
 74.96         68 
 74.98         72 
 75            102 
