LAGP-850  Original Data
 3151 
 12            525 
 12.02         486 
 12.04         495 
 12.06         427 
 12.08         497 
 12.1          474 
 12.12         519 
 12.14         466 
 12.16         516 
 12.18         453 
 12.2          487 
 12.22         498 
 12.24         476 
 12.26         542 
 12.28         474 
 12.3          534 
 12.32         439 
 12.34         559 
 12.36         475 
 12.38         488 
 12.4          486 
 12.42         530 
 12.44         449 
 12.46         483 
 12.48         435 
 12.5          483 
 12.52         492 
 12.54         436 
 12.56         505 
 12.58         488 
 12.6          495 
 12.62         473 
 12.64         472 
 12.66         464 
 12.68         536 
 12.7          474 
 12.72         511 
 12.74         457 
 12.76         483 
 12.78         469 
 12.8          501 
 12.82         508 
 12.84         433 
 12.86         469 
 12.88         415 
 12.9          460 
 12.92         476 
 12.94         493 
 12.96         475 
 12.98         511 
 13            449 
 13.02         510 
 13.04         436 
 13.06         489 
 13.08         444 
 13.1          477 
 13.12         431 
 13.14         424 
 13.16         465 
 13.18         439 
 13.2          451 
 13.22         429 
 13.24         462 
 13.26         425 
 13.28         453 
 13.3          444 
 13.32         481 
 13.34         413 
 13.36         464 
 13.38         441 
 13.4          449 
 13.42         411 
 13.44         459 
 13.46         402 
 13.48         415 
 13.5          438 
 13.52         413 
 13.54         421 
 13.56         418 
 13.58         443 
 13.6          436 
 13.62         412 
 13.64         445 
 13.66         390 
 13.68         367 
 13.7          425 
 13.72         368 
 13.74         399 
 13.76         394 
 13.78         394 
 13.8          373 
 13.82         343 
 13.84         396 
 13.86         357 
 13.88         423 
 13.9          391 
 13.92         373 
 13.94         388 
 13.96         374 
 13.98         338 
 14            350 
 14.02         350 
 14.04         354 
 14.06         324 
 14.08         357 
 14.1          347 
 14.12         357 
 14.14         372 
 14.16         313 
 14.18         350 
 14.2          378 
 14.22         360 
 14.24         335 
 14.26         350 
 14.28         302 
 14.3          349 
 14.32         304 
 14.34         343 
 14.36         309 
 14.38         345 
 14.4          305 
 14.42         301 
 14.44         317 
 14.46         296 
 14.48         323 
 14.5          295 
 14.52         293 
 14.54         331 
 14.56         333 
 14.58         334 
 14.6          334 
 14.62         326 
 14.64         349 
 14.66         340 
 14.68         366 
 14.7          392 
 14.72         436 
 14.74         442 
 14.76         465 
 14.78         514 
 14.8          562 
 14.82         557 
 14.84         627 
 14.86         712 
 14.88         771 
 14.9          927 
 14.92         1017 
 14.94         1276 
 14.96         1388 
 14.98         1731 
 15            1984 
 15.02         2402 
 15.04         2831 
 15.06         3153 
 15.08         3423 
 15.1          3273 
 15.12         2723 
 15.14         2186 
 15.16         1540 
 15.18         1032 
 15.2          678 
 15.22         455 
 15.24         413 
 15.26         302 
 15.28         322 
 15.3          284 
 15.32         279 
 15.34         253 
 15.36         231 
 15.38         236 
 15.4          261 
 15.42         255 
 15.44         236 
 15.46         254 
 15.48         265 
 15.5          224 
 15.52         246 
 15.54         205 
 15.56         186 
 15.58         222 
 15.6          253 
 15.62         229 
 15.64         219 
 15.66         221 
 15.68         193 
 15.7          212 
 15.72         207 
 15.74         205 
 15.76         217 
 15.78         199 
 15.8          232 
 15.82         209 
 15.84         191 
 15.86         214 
 15.88         222 
 15.9          211 
 15.92         192 
 15.94         194 
 15.96         217 
 15.98         212 
 16            225 
 16.02         219 
 16.04         201 
 16.06         214 
 16.08         223 
 16.1          205 
 16.12         187 
 16.14         192 
 16.16         188 
 16.18         195 
 16.2          197 
 16.22         195 
 16.24         177 
 16.26         183 
 16.28         177 
 16.3          211 
 16.32         189 
 16.34         192 
 16.36         198 
 16.38         198 
 16.4          197 
 16.42         179 
 16.44         175 
 16.46         186 
 16.48         198 
 16.5          186 
 16.52         188 
 16.54         173 
 16.56         183 
 16.58         196 
 16.6          192 
 16.62         183 
 16.64         196 
 16.66         183 
 16.68         179 
 16.7          168 
 16.72         191 
 16.74         176 
 16.76         187 
 16.78         187 
 16.8          154 
 16.82         184 
 16.84         163 
 16.86         185 
 16.88         163 
 16.9          186 
 16.92         194 
 16.94         182 
 16.96         193 
 16.98         179 
 17            152 
 17.02         195 
 17.04         176 
 17.06         187 
 17.08         179 
 17.1          169 
 17.12         171 
 17.14         163 
 17.16         166 
 17.18         204 
 17.2          147 
 17.22         200 
 17.24         197 
 17.26         191 
 17.28         220 
 17.3          190 
 17.32         189 
 17.34         214 
 17.36         247 
 17.38         255 
 17.4          268 
 17.42         247 
 17.44         219 
 17.46         210 
 17.48         202 
 17.5          158 
 17.52         204 
 17.54         188 
 17.56         171 
 17.58         168 
 17.6          194 
 17.62         178 
 17.64         173 
 17.66         148 
 17.68         171 
 17.7          164 
 17.72         170 
 17.74         161 
 17.76         149 
 17.78         166 
 17.8          140 
 17.82         138 
 17.84         150 
 17.86         169 
 17.88         161 
 17.9          190 
 17.92         146 
 17.94         149 
 17.96         170 
 17.98         163 
 18            142 
 18.02         141 
 18.04         159 
 18.06         157 
 18.08         160 
 18.1          150 
 18.12         150 
 18.14         182 
 18.16         183 
 18.18         166 
 18.2          170 
 18.22         199 
 18.24         210 
 18.26         159 
 18.28         189 
 18.3          210 
 18.32         174 
 18.34         189 
 18.36         153 
 18.38         155 
 18.4          154 
 18.42         156 
 18.44         154 
 18.46         146 
 18.48         153 
 18.5          152 
 18.52         130 
 18.54         142 
 18.56         134 
 18.58         132 
 18.6          127 
 18.62         142 
 18.64         113 
 18.66         163 
 18.68         141 
 18.7          135 
 18.72         130 
 18.74         153 
 18.76         139 
 18.78         135 
 18.8          138 
 18.82         116 
 18.84         127 
 18.86         132 
 18.88         143 
 18.9          128 
 18.92         117 
 18.94         161 
 18.96         152 
 18.98         129 
 19            135 
 19.02         135 
 19.04         127 
 19.06         120 
 19.08         112 
 19.1          140 
 19.12         151 
 19.14         122 
 19.16         123 
 19.18         141 
 19.2          132 
 19.22         126 
 19.24         135 
 19.26         132 
 19.28         135 
 19.3          117 
 19.32         144 
 19.34         127 
 19.36         127 
 19.38         148 
 19.4          133 
 19.42         132 
 19.44         128 
 19.46         120 
 19.48         112 
 19.5          129 
 19.52         144 
 19.54         115 
 19.56         114 
 19.58         102 
 19.6          99 
 19.62         122 
 19.64         135 
 19.66         116 
 19.68         141 
 19.7          125 
 19.72         113 
 19.74         118 
 19.76         110 
 19.78         111 
 19.8          113 
 19.82         134 
 19.84         122 
 19.86         136 
 19.88         125 
 19.9          122 
 19.92         133 
 19.94         114 
 19.96         120 
 19.98         115 
 20            111 
 20.02         112 
 20.04         131 
 20.06         110 
 20.08         129 
 20.1          131 
 20.12         129 
 20.14         121 
 20.16         123 
 20.18         145 
 20.2          141 
 20.22         120 
 20.24         128 
 20.26         151 
 20.28         126 
 20.3          142 
 20.32         154 
 20.34         148 
 20.36         162 
 20.38         148 
 20.4          162 
 20.42         168 
 20.44         175 
 20.46         161 
 20.48         144 
 20.5          177 
 20.52         164 
 20.54         152 
 20.56         170 
 20.58         165 
 20.6          172 
 20.62         156 
 20.64         145 
 20.66         183 
 20.68         151 
 20.7          184 
 20.72         212 
 20.74         187 
 20.76         190 
 20.78         196 
 20.8          239 
 20.82         242 
 20.84         256 
 20.86         271 
 20.88         317 
 20.9          368 
 20.92         420 
 20.94         493 
 20.96         557 
 20.98         601 
 21            765 
 21.02         905 
 21.04         1109 
 21.06         1368 
 21.08         1620 
 21.1          2030 
 21.12         2520 
 21.14         3165 
 21.16         3856 
 21.18         4817 
 21.2          6310 
 21.22         7408 
 21.24         8975 
 21.26         10416 
 21.28         11375 
 21.3          11971 
 21.32         11455 
 21.34         10832 
 21.36         9526 
 21.38         8462 
 21.4          7525 
 21.42         7339 
 21.44         7373 
 21.46         7986 
 21.48         7806 
 21.5          7981 
 21.52         7278 
 21.54         6182 
 21.56         4953 
 21.58         3591 
 21.6          2553 
 21.62         1819 
 21.64         1211 
 21.66         916 
 21.68         721 
 21.7          632 
 21.72         533 
 21.74         513 
 21.76         488 
 21.78         452 
 21.8          403 
 21.82         358 
 21.84         305 
 21.86         256 
 21.88         233 
 21.9          213 
 21.92         187 
 21.94         186 
 21.96         161 
 21.98         163 
 22            168 
 22.02         140 
 22.04         141 
 22.06         145 
 22.08         139 
 22.1          114 
 22.12         156 
 22.14         120 
 22.16         151 
 22.18         115 
 22.2          129 
 22.22         133 
 22.24         147 
 22.26         135 
 22.28         132 
 22.3          126 
 22.32         117 
 22.34         103 
 22.36         115 
 22.38         108 
 22.4          113 
 22.42         109 
 22.44         120 
 22.46         101 
 22.48         108 
 22.5          98 
 22.52         144 
 22.54         133 
 22.56         102 
 22.58         124 
 22.6          115 
 22.62         106 
 22.64         119 
 22.66         134 
 22.68         92 
 22.7          124 
 22.72         111 
 22.74         128 
 22.76         111 
 22.78         118 
 22.8          118 
 22.82         114 
 22.84         124 
 22.86         113 
 22.88         119 
 22.9          122 
 22.92         137 
 22.94         117 
 22.96         110 
 22.98         107 
 23            121 
 23.02         120 
 23.04         120 
 23.06         128 
 23.08         96 
 23.1          124 
 23.12         138 
 23.14         130 
 23.16         104 
 23.18         90 
 23.2          123 
 23.22         108 
 23.24         135 
 23.26         126 
 23.28         129 
 23.3          113 
 23.32         123 
 23.34         122 
 23.36         142 
 23.38         129 
 23.4          128 
 23.42         123 
 23.44         129 
 23.46         117 
 23.48         144 
 23.5          140 
 23.52         134 
 23.54         128 
 23.56         120 
 23.58         123 
 23.6          118 
 23.62         141 
 23.64         132 
 23.66         152 
 23.68         125 
 23.7          144 
 23.72         144 
 23.74         125 
 23.76         144 
 23.78         122 
 23.8          136 
 23.82         116 
 23.84         105 
 23.86         104 
 23.88         110 
 23.9          134 
 23.92         73 
 23.94         100 
 23.96         128 
 23.98         114 
 24            121 
 24.02         137 
 24.04         123 
 24.06         130 
 24.08         146 
 24.1          158 
 24.12         147 
 24.14         143 
 24.16         138 
 24.18         141 
 24.2          137 
 24.22         106 
 24.24         139 
 24.26         115 
 24.28         104 
 24.3          111 
 24.32         118 
 24.34         126 
 24.36         125 
 24.38         126 
 24.4          113 
 24.42         138 
 24.44         127 
 24.46         128 
 24.48         126 
 24.5          110 
 24.52         127 
 24.54         146 
 24.56         145 
 24.58         133 
 24.6          137 
 24.62         138 
 24.64         163 
 24.66         223 
 24.68         182 
 24.7          216 
 24.72         255 
 24.74         310 
 24.76         288 
 24.78         354 
 24.8          442 
 24.82         501 
 24.84         631 
 24.86         669 
 24.88         802 
 24.9          929 
 24.92         1136 
 24.94         1497 
 24.96         1875 
 24.98         2400 
 25            3035 
 25.02         3991 
 25.04         4998 
 25.06         6846 
 25.08         8754 
 25.1          10935 
 25.12         13573 
 25.14         14708 
 25.16         16102 
 25.18         15719 
 25.2          14016 
 25.22         11375 
 25.24         8614 
 25.26         6142 
 25.28         3939 
 25.3          2625 
 25.32         1616 
 25.34         1055 
 25.36         748 
 25.38         604 
 25.4          462 
 25.42         387 
 25.44         352 
 25.46         318 
 25.48         296 
 25.5          246 
 25.52         234 
 25.54         233 
 25.56         210 
 25.58         188 
 25.6          204 
 25.62         176 
 25.64         166 
 25.66         190 
 25.68         204 
 25.7          198 
 25.72         212 
 25.74         223 
 25.76         255 
 25.78         245 
 25.8          327 
 25.82         340 
 25.84         351 
 25.86         425 
 25.88         445 
 25.9          505 
 25.92         494 
 25.94         575 
 25.96         588 
 25.98         581 
 26            570 
 26.02         603 
 26.04         498 
 26.06         539 
 26.08         492 
 26.1          425 
 26.12         441 
 26.14         353 
 26.16         297 
 26.18         261 
 26.2          224 
 26.22         228 
 26.24         235 
 26.26         261 
 26.28         326 
 26.3          329 
 26.32         390 
 26.34         381 
 26.36         423 
 26.38         492 
 26.4          460 
 26.42         421 
 26.44         384 
 26.46         359 
 26.48         291 
 26.5          282 
 26.52         202 
 26.54         161 
 26.56         142 
 26.58         126 
 26.6          130 
 26.62         111 
 26.64         113 
 26.66         109 
 26.68         100 
 26.7          130 
 26.72         119 
 26.74         112 
 26.76         96 
 26.78         109 
 26.8          86 
 26.82         90 
 26.84         109 
 26.86         96 
 26.88         112 
 26.9          101 
 26.92         110 
 26.94         112 
 26.96         113 
 26.98         119 
 27            136 
 27.02         121 
 27.04         146 
 27.06         122 
 27.08         123 
 27.1          106 
 27.12         128 
 27.14         112 
 27.16         116 
 27.18         97 
 27.2          98 
 27.22         104 
 27.24         121 
 27.26         111 
 27.28         101 
 27.3          105 
 27.32         116 
 27.34         103 
 27.36         97 
 27.38         83 
 27.4          103 
 27.42         92 
 27.44         87 
 27.46         90 
 27.48         96 
 27.5          85 
 27.52         106 
 27.54         93 
 27.56         86 
 27.58         96 
 27.6          96 
 27.62         105 
 27.64         81 
 27.66         81 
 27.68         87 
 27.7          104 
 27.72         106 
 27.74         99 
 27.76         93 
 27.78         100 
 27.8          95 
 27.82         88 
 27.84         87 
 27.86         108 
 27.88         103 
 27.9          89 
 27.92         99 
 27.94         91 
 27.96         128 
 27.98         95 
 28            113 
 28.02         84 
 28.04         101 
 28.06         104 
 28.08         103 
 28.1          104 
 28.12         122 
 28.14         114 
 28.16         99 
 28.18         113 
 28.2          115 
 28.22         106 
 28.24         88 
 28.26         105 
 28.28         96 
 28.3          115 
 28.32         99 
 28.34         104 
 28.36         92 
 28.38         112 
 28.4          96 
 28.42         102 
 28.44         96 
 28.46         97 
 28.48         106 
 28.5          95 
 28.52         103 
 28.54         112 
 28.56         109 
 28.58         131 
 28.6          112 
 28.62         114 
 28.64         106 
 28.66         104 
 28.68         120 
 28.7          111 
 28.72         103 
 28.74         102 
 28.76         85 
 28.78         103 
 28.8          91 
 28.82         94 
 28.84         105 
 28.86         100 
 28.88         84 
 28.9          92 
 28.92         77 
 28.94         92 
 28.96         82 
 28.98         89 
 29            92 
 29.02         96 
 29.04         85 
 29.06         100 
 29.08         98 
 29.1          101 
 29.12         107 
 29.14         89 
 29.16         96 
 29.18         91 
 29.2          107 
 29.22         106 
 29.24         118 
 29.26         105 
 29.28         101 
 29.3          85 
 29.32         99 
 29.34         102 
 29.36         112 
 29.38         102 
 29.4          90 
 29.42         96 
 29.44         123 
 29.46         109 
 29.48         110 
 29.5          107 
 29.52         119 
 29.54         125 
 29.56         107 
 29.58         106 
 29.6          82 
 29.62         98 
 29.64         110 
 29.66         94 
 29.68         93 
 29.7          123 
 29.72         117 
 29.74         124 
 29.76         107 
 29.78         106 
 29.8          106 
 29.82         117 
 29.84         125 
 29.86         104 
 29.88         112 
 29.9          137 
 29.92         128 
 29.94         140 
 29.96         165 
 29.98         184 
 30            159 
 30.02         196 
 30.04         215 
 30.06         257 
 30.08         259 
 30.1          273 
 30.12         306 
 30.14         370 
 30.16         442 
 30.18         516 
 30.2          713 
 30.22         837 
 30.24         1048 
 30.26         1369 
 30.28         1782 
 30.3          2390 
 30.32         3241 
 30.34         4377 
 30.36         5427 
 30.38         6872 
 30.4          7979 
 30.42         9054 
 30.44         9348 
 30.46         8766 
 30.48         7975 
 30.5          6608 
 30.52         5313 
 30.54         3638 
 30.56         2682 
 30.58         1881 
 30.6          1240 
 30.62         816 
 30.64         642 
 30.66         445 
 30.68         404 
 30.7          346 
 30.72         329 
 30.74         273 
 30.76         260 
 30.78         242 
 30.8          207 
 30.82         184 
 30.84         175 
 30.86         183 
 30.88         166 
 30.9          135 
 30.92         152 
 30.94         155 
 30.96         135 
 30.98         147 
 31            127 
 31.02         141 
 31.04         148 
 31.06         134 
 31.08         141 
 31.1          163 
 31.12         133 
 31.14         121 
 31.16         128 
 31.18         115 
 31.2          107 
 31.22         111 
 31.24         118 
 31.26         90 
 31.28         114 
 31.3          111 
 31.32         112 
 31.34         123 
 31.36         107 
 31.38         113 
 31.4          140 
 31.42         145 
 31.44         125 
 31.46         112 
 31.48         139 
 31.5          116 
 31.52         101 
 31.54         120 
 31.56         121 
 31.58         105 
 31.6          126 
 31.62         129 
 31.64         116 
 31.66         113 
 31.68         103 
 31.7          111 
 31.72         103 
 31.74         99 
 31.76         108 
 31.78         98 
 31.8          96 
 31.82         113 
 31.84         102 
 31.86         118 
 31.88         129 
 31.9          106 
 31.92         99 
 31.94         87 
 31.96         105 
 31.98         86 
 32            78 
 32.02         99 
 32.04         89 
 32.06         88 
 32.08         93 
 32.1          85 
 32.12         93 
 32.14         102 
 32.16         72 
 32.18         87 
 32.2          87 
 32.22         101 
 32.24         93 
 32.26         86 
 32.28         76 
 32.3          73 
 32.32         88 
 32.34         68 
 32.36         89 
 32.38         102 
 32.4          84 
 32.42         84 
 32.44         95 
 32.46         97 
 32.48         77 
 32.5          112 
 32.52         80 
 32.54         99 
 32.56         82 
 32.58         104 
 32.6          105 
 32.62         82 
 32.64         85 
 32.66         90 
 32.68         99 
 32.7          100 
 32.72         99 
 32.74         107 
 32.76         108 
 32.78         96 
 32.8          98 
 32.82         95 
 32.84         110 
 32.86         86 
 32.88         106 
 32.9          102 
 32.92         125 
 32.94         110 
 32.96         122 
 32.98         114 
 33            149 
 33.02         146 
 33.04         152 
 33.06         191 
 33.08         192 
 33.1          230 
 33.12         230 
 33.14         251 
 33.16         326 
 33.18         418 
 33.2          502 
 33.22         617 
 33.24         816 
 33.26         1044 
 33.28         1324 
 33.3          1758 
 33.32         2105 
 33.34         2408 
 33.36         2518 
 33.38         2889 
 33.4          2827 
 33.42         2694 
 33.44         2429 
 33.46         2126 
 33.48         1789 
 33.5          1414 
 33.52         1146 
 33.54         913 
 33.56         700 
 33.58         560 
 33.6          509 
 33.62         404 
 33.64         360 
 33.66         366 
 33.68         365 
 33.7          355 
 33.72         398 
 33.74         471 
 33.76         588 
 33.78         717 
 33.8          886 
 33.82         1094 
 33.84         1406 
 33.86         1861 
 33.88         2238 
 33.9          2963 
 33.92         3587 
 33.94         4462 
 33.96         5117 
 33.98         5748 
 34            5808 
 34.02         5812 
 34.04         5499 
 34.06         4835 
 34.08         4073 
 34.1          3260 
 34.12         2505 
 34.14         1927 
 34.16         1394 
 34.18         965 
 34.2          686 
 34.22         465 
 34.24         348 
 34.26         275 
 34.28         238 
 34.3          206 
 34.32         204 
 34.34         164 
 34.36         154 
 34.38         161 
 34.4          146 
 34.42         136 
 34.44         136 
 34.46         107 
 34.48         111 
 34.5          107 
 34.52         108 
 34.54         99 
 34.56         107 
 34.58         106 
 34.6          102 
 34.62         103 
 34.64         91 
 34.66         113 
 34.68         91 
 34.7          100 
 34.72         98 
 34.74         101 
 34.76         103 
 34.78         96 
 34.8          80 
 34.82         83 
 34.84         97 
 34.86         81 
 34.88         89 
 34.9          105 
 34.92         86 
 34.94         85 
 34.96         93 
 34.98         91 
 35            91 
 35.02         88 
 35.04         80 
 35.06         91 
 35.08         90 
 35.1          83 
 35.12         85 
 35.14         67 
 35.16         76 
 35.18         89 
 35.2          73 
 35.22         78 
 35.24         82 
 35.26         79 
 35.28         89 
 35.3          80 
 35.32         90 
 35.34         99 
 35.36         90 
 35.38         95 
 35.4          85 
 35.42         84 
 35.44         100 
 35.46         82 
 35.48         92 
 35.5          82 
 35.52         77 
 35.54         85 
 35.56         86 
 35.58         77 
 35.6          87 
 35.62         119 
 35.64         104 
 35.66         112 
 35.68         97 
 35.7          121 
 35.72         100 
 35.74         110 
 35.76         120 
 35.78         115 
 35.8          129 
 35.82         103 
 35.84         120 
 35.86         111 
 35.88         111 
 35.9          132 
 35.92         114 
 35.94         138 
 35.96         116 
 35.98         94 
 36            106 
 36.02         120 
 36.04         84 
 36.06         96 
 36.08         93 
 36.1          94 
 36.12         100 
 36.14         98 
 36.16         69 
 36.18         80 
 36.2          90 
 36.22         101 
 36.24         83 
 36.26         93 
 36.28         79 
 36.3          95 
 36.32         91 
 36.34         87 
 36.36         88 
 36.38         80 
 36.4          85 
 36.42         102 
 36.44         91 
 36.46         83 
 36.48         71 
 36.5          86 
 36.52         75 
 36.54         70 
 36.56         84 
 36.58         68 
 36.6          91 
 36.62         89 
 36.64         79 
 36.66         61 
 36.68         85 
 36.7          81 
 36.72         76 
 36.74         94 
 36.76         85 
 36.78         79 
 36.8          97 
 36.82         91 
 36.84         70 
 36.86         113 
 36.88         106 
 36.9          92 
 36.92         111 
 36.94         96 
 36.96         107 
 36.98         140 
 37            154 
 37.02         156 
 37.04         154 
 37.06         171 
 37.08         162 
 37.1          165 
 37.12         169 
 37.14         188 
 37.16         223 
 37.18         243 
 37.2          239 
 37.22         227 
 37.24         239 
 37.26         266 
 37.28         287 
 37.3          329 
 37.32         344 
 37.34         429 
 37.36         456 
 37.38         602 
 37.4          736 
 37.42         978 
 37.44         1232 
 37.46         1696 
 37.48         2114 
 37.5          2837 
 37.52         3414 
 37.54         3924 
 37.56         4448 
 37.58         4774 
 37.6          5073 
 37.62         5057 
 37.64         5110 
 37.66         4807 
 37.68         4508 
 37.7          4131 
 37.72         3704 
 37.74         3006 
 37.76         2681 
 37.78         2232 
 37.8          1824 
 37.82         1394 
 37.84         1147 
 37.86         922 
 37.88         702 
 37.9          570 
 37.92         436 
 37.94         408 
 37.96         317 
 37.98         287 
 38            250 
 38.02         220 
 38.04         193 
 38.06         198 
 38.08         202 
 38.1          197 
 38.12         177 
 38.14         167 
 38.16         151 
 38.18         167 
 38.2          145 
 38.22         166 
 38.24         151 
 38.26         118 
 38.28         120 
 38.3          128 
 38.32         128 
 38.34         115 
 38.36         101 
 38.38         104 
 38.4          115 
 38.42         91 
 38.44         101 
 38.46         100 
 38.48         99 
 38.5          77 
 38.52         105 
 38.54         95 
 38.56         78 
 38.58         85 
 38.6          89 
 38.62         74 
 38.64         83 
 38.66         98 
 38.68         88 
 38.7          74 
 38.72         89 
 38.74         84 
 38.76         97 
 38.78         70 
 38.8          82 
 38.82         92 
 38.84         80 
 38.86         80 
 38.88         86 
 38.9          87 
 38.92         110 
 38.94         89 
 38.96         97 
 38.98         111 
 39            101 
 39.02         114 
 39.04         115 
 39.06         104 
 39.08         98 
 39.1          94 
 39.12         96 
 39.14         90 
 39.16         100 
 39.18         105 
 39.2          86 
 39.22         104 
 39.24         87 
 39.26         127 
 39.28         130 
 39.3          116 
 39.32         117 
 39.34         120 
 39.36         115 
 39.38         118 
 39.4          119 
 39.42         102 
 39.44         116 
 39.46         107 
 39.48         108 
 39.5          96 
 39.52         108 
 39.54         103 
 39.56         109 
 39.58         97 
 39.6          100 
 39.62         112 
 39.64         100 
 39.66         106 
 39.68         110 
 39.7          99 
 39.72         112 
 39.74         131 
 39.76         112 
 39.78         121 
 39.8          119 
 39.82         138 
 39.84         131 
 39.86         134 
 39.88         172 
 39.9          151 
 39.92         163 
 39.94         185 
 39.96         224 
 39.98         224 
 40            222 
 40.02         207 
 40.04         203 
 40.06         184 
 40.08         205 
 40.1          182 
 40.12         166 
 40.14         149 
 40.16         140 
 40.18         142 
 40.2          115 
 40.22         121 
 40.24         119 
 40.26         112 
 40.28         100 
 40.3          104 
 40.32         87 
 40.34         97 
 40.36         74 
 40.38         87 
 40.4          77 
 40.42         83 
 40.44         86 
 40.46         89 
 40.48         76 
 40.5          97 
 40.52         69 
 40.54         76 
 40.56         92 
 40.58         93 
 40.6          80 
 40.62         72 
 40.64         84 
 40.66         67 
 40.68         63 
 40.7          68 
 40.72         83 
 40.74         62 
 40.76         73 
 40.78         66 
 40.8          85 
 40.82         83 
 40.84         67 
 40.86         83 
 40.88         78 
 40.9          79 
 40.92         82 
 40.94         79 
 40.96         74 
 40.98         80 
 41            81 
 41.02         74 
 41.04         83 
 41.06         72 
 41.08         114 
 41.1          92 
 41.12         108 
 41.14         85 
 41.16         94 
 41.18         71 
 41.2          82 
 41.22         86 
 41.24         73 
 41.26         62 
 41.28         59 
 41.3          74 
 41.32         78 
 41.34         99 
 41.36         70 
 41.38         80 
 41.4          95 
 41.42         79 
 41.44         85 
 41.46         85 
 41.48         85 
 41.5          95 
 41.52         105 
 41.54         94 
 41.56         89 
 41.58         99 
 41.6          123 
 41.62         111 
 41.64         95 
 41.66         120 
 41.68         93 
 41.7          97 
 41.72         104 
 41.74         129 
 41.76         101 
 41.78         127 
 41.8          110 
 41.82         86 
 41.84         85 
 41.86         101 
 41.88         108 
 41.9          90 
 41.92         74 
 41.94         97 
 41.96         88 
 41.98         95 
 42            82 
 42.02         98 
 42.04         86 
 42.06         82 
 42.08         86 
 42.1          85 
 42.12         98 
 42.14         86 
 42.16         88 
 42.18         91 
 42.2          92 
 42.22         78 
 42.24         81 
 42.26         64 
 42.28         79 
 42.3          86 
 42.32         91 
 42.34         100 
 42.36         103 
 42.38         105 
 42.4          68 
 42.42         85 
 42.44         80 
 42.46         67 
 42.48         64 
 42.5          68 
 42.52         75 
 42.54         89 
 42.56         72 
 42.58         75 
 42.6          75 
 42.62         79 
 42.64         86 
 42.66         78 
 42.68         97 
 42.7          81 
 42.72         63 
 42.74         71 
 42.76         87 
 42.78         88 
 42.8          89 
 42.82         82 
 42.84         87 
 42.86         75 
 42.88         94 
 42.9          80 
 42.92         74 
 42.94         79 
 42.96         74 
 42.98         104 
 43            105 
 43.02         87 
 43.04         82 
 43.06         106 
 43.08         106 
 43.1          117 
 43.12         136 
 43.14         138 
 43.16         176 
 43.18         224 
 43.2          227 
 43.22         252 
 43.24         319 
 43.26         352 
 43.28         435 
 43.3          495 
 43.32         540 
 43.34         584 
 43.36         592 
 43.38         679 
 43.4          609 
 43.42         596 
 43.44         544 
 43.46         494 
 43.48         417 
 43.5          394 
 43.52         337 
 43.54         264 
 43.56         274 
 43.58         199 
 43.6          188 
 43.62         147 
 43.64         121 
 43.66         105 
 43.68         123 
 43.7          117 
 43.72         144 
 43.74         108 
 43.76         109 
 43.78         110 
 43.8          122 
 43.82         103 
 43.84         107 
 43.86         96 
 43.88         80 
 43.9          116 
 43.92         107 
 43.94         88 
 43.96         100 
 43.98         79 
 44            90 
 44.02         73 
 44.04         86 
 44.06         88 
 44.08         91 
 44.1          95 
 44.12         98 
 44.14         74 
 44.16         75 
 44.18         81 
 44.2          78 
 44.22         103 
 44.24         84 
 44.26         87 
 44.28         77 
 44.3          75 
 44.32         95 
 44.34         75 
 44.36         67 
 44.38         80 
 44.4          79 
 44.42         80 
 44.44         78 
 44.46         72 
 44.48         91 
 44.5          86 
 44.52         69 
 44.54         83 
 44.56         59 
 44.58         105 
 44.6          78 
 44.62         75 
 44.64         76 
 44.66         83 
 44.68         82 
 44.7          88 
 44.72         86 
 44.74         97 
 44.76         92 
 44.78         87 
 44.8          83 
 44.82         77 
 44.84         83 
 44.86         74 
 44.88         109 
 44.9          98 
 44.92         92 
 44.94         109 
 44.96         90 
 44.98         100 
 45            99 
 45.02         93 
 45.04         129 
 45.06         139 
 45.08         141 
 45.1          145 
 45.12         149 
 45.14         190 
 45.16         222 
 45.18         245 
 45.2          309 
 45.22         359 
 45.24         350 
 45.26         428 
 45.28         515 
 45.3          647 
 45.32         623 
 45.34         701 
 45.36         740 
 45.38         825 
 45.4          838 
 45.42         878 
 45.44         862 
 45.46         894 
 45.48         860 
 45.5          752 
 45.52         810 
 45.54         717 
 45.56         673 
 45.58         684 
 45.6          657 
 45.62         569 
 45.64         535 
 45.66         497 
 45.68         509 
 45.7          490 
 45.72         520 
 45.74         534 
 45.76         578 
 45.78         656 
 45.8          631 
 45.82         660 
 45.84         693 
 45.86         689 
 45.88         649 
 45.9          635 
 45.92         600 
 45.94         635 
 45.96         562 
 45.98         522 
 46            498 
 46.02         430 
 46.04         427 
 46.06         382 
 46.08         364 
 46.1          313 
 46.12         312 
 46.14         254 
 46.16         276 
 46.18         220 
 46.2          196 
 46.22         211 
 46.24         224 
 46.26         213 
 46.28         230 
 46.3          248 
 46.32         266 
 46.34         292 
 46.36         294 
 46.38         331 
 46.4          325 
 46.42         343 
 46.44         391 
 46.46         427 
 46.48         409 
 46.5          452 
 46.52         503 
 46.54         494 
 46.56         449 
 46.58         460 
 46.6          420 
 46.62         380 
 46.64         379 
 46.66         349 
 46.68         327 
 46.7          296 
 46.72         244 
 46.74         208 
 46.76         175 
 46.78         172 
 46.8          146 
 46.82         160 
 46.84         105 
 46.86         108 
 46.88         89 
 46.9          102 
 46.92         100 
 46.94         84 
 46.96         72 
 46.98         92 
 47            73 
 47.02         85 
 47.04         76 
 47.06         75 
 47.08         76 
 47.1          86 
 47.12         63 
 47.14         61 
 47.16         59 
 47.18         79 
 47.2          53 
 47.22         79 
 47.24         67 
 47.26         72 
 47.28         80 
 47.3          92 
 47.32         79 
 47.34         61 
 47.36         70 
 47.38         74 
 47.4          69 
 47.42         64 
 47.44         73 
 47.46         75 
 47.48         80 
 47.5          76 
 47.52         74 
 47.54         76 
 47.56         82 
 47.58         76 
 47.6          58 
 47.62         74 
 47.64         70 
 47.66         79 
 47.68         71 
 47.7          82 
 47.72         65 
 47.74         86 
 47.76         91 
 47.78         76 
 47.8          73 
 47.82         85 
 47.84         68 
 47.86         82 
 47.88         85 
 47.9          84 
 47.92         79 
 47.94         76 
 47.96         82 
 47.98         77 
 48            90 
 48.02         79 
 48.04         90 
 48.06         82 
 48.08         94 
 48.1          105 
 48.12         80 
 48.14         96 
 48.16         97 
 48.18         104 
 48.2          94 
 48.22         97 
 48.24         105 
 48.26         97 
 48.28         95 
 48.3          88 
 48.32         116 
 48.34         133 
 48.36         104 
 48.38         115 
 48.4          134 
 48.42         133 
 48.44         135 
 48.46         149 
 48.48         149 
 48.5          154 
 48.52         181 
 48.54         195 
 48.56         217 
 48.58         222 
 48.6          274 
 48.62         321 
 48.64         348 
 48.66         377 
 48.68         488 
 48.7          616 
 48.72         742 
 48.74         919 
 48.76         1202 
 48.78         1426 
 48.8          1806 
 48.82         2141 
 48.84         2471 
 48.86         2793 
 48.88         3077 
 48.9          3142 
 48.92         3031 
 48.94         2906 
 48.96         2721 
 48.98         2454 
 49            2293 
 49.02         2156 
 49.04         2084 
 49.06         1940 
 49.08         1968 
 49.1          1826 
 49.12         1997 
 49.14         1885 
 49.16         1843 
 49.18         1781 
 49.2          1615 
 49.22         1540 
 49.24         1479 
 49.26         1431 
 49.28         1213 
 49.3          1073 
 49.32         886 
 49.34         818 
 49.36         665 
 49.38         529 
 49.4          445 
 49.42         394 
 49.44         297 
 49.46         288 
 49.48         209 
 49.5          197 
 49.52         191 
 49.54         160 
 49.56         186 
 49.58         153 
 49.6          156 
 49.62         144 
 49.64         143 
 49.66         143 
 49.68         134 
 49.7          120 
 49.72         129 
 49.74         117 
 49.76         106 
 49.78         105 
 49.8          97 
 49.82         101 
 49.84         104 
 49.86         110 
 49.88         93 
 49.9          107 
 49.92         75 
 49.94         95 
 49.96         86 
 49.98         77 
 50            100 
 50.02         95 
 50.04         98 
 50.06         70 
 50.08         83 
 50.1          80 
 50.12         82 
 50.14         86 
 50.16         94 
 50.18         86 
 50.2          92 
 50.22         83 
 50.24         91 
 50.26         82 
 50.28         79 
 50.3          80 
 50.32         83 
 50.34         75 
 50.36         81 
 50.38         85 
 50.4          73 
 50.42         86 
 50.44         73 
 50.46         75 
 50.48         69 
 50.5          75 
 50.52         92 
 50.54         78 
 50.56         73 
 50.58         70 
 50.6          103 
 50.62         83 
 50.64         93 
 50.66         78 
 50.68         84 
 50.7          105 
 50.72         90 
 50.74         86 
 50.76         100 
 50.78         123 
 50.8          120 
 50.82         126 
 50.84         130 
 50.86         119 
 50.88         167 
 50.9          174 
 50.92         210 
 50.94         235 
 50.96         311 
 50.98         371 
 51            440 
 51.02         545 
 51.04         554 
 51.06         604 
 51.08         638 
 51.1          546 
 51.12         612 
 51.14         674 
 51.16         621 
 51.18         676 
 51.2          621 
 51.22         603 
 51.24         661 
 51.26         627 
 51.28         630 
 51.3          629 
 51.32         649 
 51.34         621 
 51.36         603 
 51.38         603 
 51.4          621 
 51.42         578 
 51.44         556 
 51.46         630 
 51.48         708 
 51.5          836 
 51.52         1002 
 51.54         1231 
 51.56         1560 
 51.58         1851 
 51.6          2196 
 51.62         2410 
 51.64         2395 
 51.66         2366 
 51.68         2349 
 51.7          2278 
 51.72         2124 
 51.74         2136 
 51.76         2063 
 51.78         1943 
 51.8          1734 
 51.82         1556 
 51.84         1399 
 51.86         1186 
 51.88         1053 
 51.9          971 
 51.92         887 
 51.94         715 
 51.96         655 
 51.98         553 
 52            511 
 52.02         385 
 52.04         342 
 52.06         308 
 52.08         271 
 52.1          233 
 52.12         199 
 52.14         175 
 52.16         158 
 52.18         143 
 52.2          148 
 52.22         113 
 52.24         98 
 52.26         103 
 52.28         112 
 52.3          94 
 52.32         104 
 52.34         88 
 52.36         90 
 52.38         86 
 52.4          78 
 52.42         90 
 52.44         84 
 52.46         81 
 52.48         80 
 52.5          101 
 52.52         81 
 52.54         78 
 52.56         83 
 52.58         66 
 52.6          91 
 52.62         80 
 52.64         82 
 52.66         67 
 52.68         65 
 52.7          71 
 52.72         70 
 52.74         91 
 52.76         93 
 52.78         85 
 52.8          64 
 52.82         75 
 52.84         83 
 52.86         85 
 52.88         85 
 52.9          110 
 52.92         78 
 52.94         90 
 52.96         93 
 52.98         95 
 53            84 
 53.02         81 
 53.04         93 
 53.06         83 
 53.08         96 
 53.1          98 
 53.12         99 
 53.14         123 
 53.16         106 
 53.18         103 
 53.2          126 
 53.22         129 
 53.24         129 
 53.26         137 
 53.28         163 
 53.3          171 
 53.32         171 
 53.34         190 
 53.36         183 
 53.38         220 
 53.4          198 
 53.42         227 
 53.44         216 
 53.46         221 
 53.48         220 
 53.5          254 
 53.52         246 
 53.54         253 
 53.56         272 
 53.58         251 
 53.6          233 
 53.62         262 
 53.64         250 
 53.66         228 
 53.68         239 
 53.7          223 
 53.72         195 
 53.74         199 
 53.76         192 
 53.78         195 
 53.8          161 
 53.82         125 
 53.84         140 
 53.86         120 
 53.88         111 
 53.9          91 
 53.92         97 
 53.94         95 
 53.96         100 
 53.98         89 
 54            89 
 54.02         80 
 54.04         78 
 54.06         89 
 54.08         75 
 54.1          76 
 54.12         79 
 54.14         93 
 54.16         102 
 54.18         78 
 54.2          96 
 54.22         106 
 54.24         103 
 54.26         121 
 54.28         98 
 54.3          98 
 54.32         100 
 54.34         100 
 54.36         94 
 54.38         93 
 54.4          88 
 54.42         95 
 54.44         83 
 54.46         87 
 54.48         85 
 54.5          75 
 54.52         86 
 54.54         92 
 54.56         79 
 54.58         80 
 54.6          74 
 54.62         81 
 54.64         85 
 54.66         71 
 54.68         77 
 54.7          83 
 54.72         72 
 54.74         89 
 54.76         83 
 54.78         69 
 54.8          79 
 54.82         78 
 54.84         77 
 54.86         71 
 54.88         71 
 54.9          77 
 54.92         62 
 54.94         68 
 54.96         72 
 54.98         66 
 55            79 
 55.02         62 
 55.04         72 
 55.06         67 
 55.08         63 
 55.1          89 
 55.12         75 
 55.14         76 
 55.16         85 
 55.18         62 
 55.2          98 
 55.22         86 
 55.24         62 
 55.26         85 
 55.28         90 
 55.3          85 
 55.32         79 
 55.34         71 
 55.36         92 
 55.38         77 
 55.4          75 
 55.42         102 
 55.44         97 
 55.46         91 
 55.48         99 
 55.5          88 
 55.52         98 
 55.54         119 
 55.56         128 
 55.58         92 
 55.6          128 
 55.62         117 
 55.64         154 
 55.66         166 
 55.68         186 
 55.7          197 
 55.72         216 
 55.74         282 
 55.76         337 
 55.78         441 
 55.8          541 
 55.82         656 
 55.84         783 
 55.86         860 
 55.88         860 
 55.9          924 
 55.92         882 
 55.94         896 
 55.96         876 
 55.98         973 
 56            979 
 56.02         976 
 56.04         1055 
 56.06         1060 
 56.08         1209 
 56.1          1236 
 56.12         1346 
 56.14         1459 
 56.16         1528 
 56.18         1592 
 56.2          1672 
 56.22         1714 
 56.24         1771 
 56.26         1687 
 56.28         1654 
 56.3          1514 
 56.32         1348 
 56.34         1278 
 56.36         1069 
 56.38         1015 
 56.4          873 
 56.42         730 
 56.44         693 
 56.46         513 
 56.48         472 
 56.5          373 
 56.52         307 
 56.54         239 
 56.56         234 
 56.58         180 
 56.6          197 
 56.62         127 
 56.64         142 
 56.66         122 
 56.68         136 
 56.7          129 
 56.72         116 
 56.74         112 
 56.76         103 
 56.78         115 
 56.8          107 
 56.82         125 
 56.84         99 
 56.86         116 
 56.88         102 
 56.9          106 
 56.92         113 
 56.94         101 
 56.96         87 
 56.98         94 
 57            91 
 57.02         75 
 57.04         79 
 57.06         80 
 57.08         91 
 57.1          90 
 57.12         80 
 57.14         81 
 57.16         68 
 57.18         77 
 57.2          85 
 57.22         79 
 57.24         87 
 57.26         63 
 57.28         89 
 57.3          62 
 57.32         66 
 57.34         77 
 57.36         55 
 57.38         61 
 57.4          81 
 57.42         72 
 57.44         83 
 57.46         65 
 57.48         83 
 57.5          75 
 57.52         67 
 57.54         79 
 57.56         79 
 57.58         68 
 57.6          73 
 57.62         86 
 57.64         84 
 57.66         70 
 57.68         88 
 57.7          86 
 57.72         65 
 57.74         88 
 57.76         60 
 57.78         79 
 57.8          94 
 57.82         92 
 57.84         91 
 57.86         82 
 57.88         88 
 57.9          91 
 57.92         91 
 57.94         97 
 57.96         116 
 57.98         121 
 58            137 
 58.02         141 
 58.04         156 
 58.06         174 
 58.08         184 
 58.1          164 
 58.12         202 
 58.14         204 
 58.16         212 
 58.18         246 
 58.2          243 
 58.22         280 
 58.24         291 
 58.26         344 
 58.28         331 
 58.3          348 
 58.32         364 
 58.34         388 
 58.36         391 
 58.38         414 
 58.4          463 
 58.42         461 
 58.44         442 
 58.46         442 
 58.48         456 
 58.5          481 
 58.52         416 
 58.54         463 
 58.56         504 
 58.58         484 
 58.6          583 
 58.62         742 
 58.64         813 
 58.66         930 
 58.68         1177 
 58.7          1409 
 58.72         1490 
 58.74         1670 
 58.76         1708 
 58.78         1743 
 58.8          1690 
 58.82         1757 
 58.84         1644 
 58.86         1844 
 58.88         1943 
 58.9          2284 
 58.92         2502 
 58.94         2708 
 58.96         2930 
 58.98         3056 
 59            3124 
 59.02         3110 
 59.04         3312 
 59.06         3125 
 59.08         3147 
 59.1          2946 
 59.12         2822 
 59.14         2854 
 59.16         2710 
 59.18         2425 
 59.2          2242 
 59.22         2065 
 59.24         1820 
 59.26         1576 
 59.28         1367 
 59.3          1254 
 59.32         1063 
 59.34         949 
 59.36         788 
 59.38         676 
 59.4          579 
 59.42         526 
 59.44         486 
 59.46         381 
 59.48         331 
 59.5          314 
 59.52         255 
 59.54         224 
 59.56         229 
 59.58         196 
 59.6          175 
 59.62         168 
 59.64         169 
 59.66         144 
 59.68         143 
 59.7          129 
 59.72         141 
 59.74         124 
 59.76         133 
 59.78         113 
 59.8          108 
 59.82         112 
 59.84         98 
 59.86         128 
 59.88         133 
 59.9          117 
 59.92         117 
 59.94         98 
 59.96         94 
 59.98         91 
 60            99 
 60.02         101 
 60.04         91 
 60.06         98 
 60.08         102 
 60.1          91 
 60.12         100 
 60.14         91 
 60.16         87 
 60.18         111 
 60.2          108 
 60.22         127 
 60.24         129 
 60.26         133 
 60.28         165 
 60.3          178 
 60.32         188 
 60.34         188 
 60.36         251 
 60.38         264 
 60.4          234 
 60.42         262 
 60.44         250 
 60.46         268 
 60.48         257 
 60.5          287 
 60.52         290 
 60.54         333 
 60.56         373 
 60.58         460 
 60.6          499 
 60.62         555 
 60.64         628 
 60.66         658 
 60.68         707 
 60.7          755 
 60.72         721 
 60.74         783 
 60.76         767 
 60.78         773 
 60.8          728 
 60.82         656 
 60.84         708 
 60.86         616 
 60.88         636 
 60.9          506 
 60.92         463 
 60.94         403 
 60.96         370 
 60.98         316 
 61            300 
 61.02         273 
 61.04         236 
 61.06         210 
 61.08         149 
 61.1          163 
 61.12         138 
 61.14         122 
 61.16         126 
 61.18         121 
 61.2          102 
 61.22         88 
 61.24         87 
 61.26         112 
 61.28         102 
 61.3          110 
 61.32         99 
 61.34         72 
 61.36         80 
 61.38         78 
 61.4          92 
 61.42         91 
 61.44         96 
 61.46         63 
 61.48         84 
 61.5          80 
 61.52         66 
 61.54         65 
 61.56         77 
 61.58         69 
 61.6          82 
 61.62         61 
 61.64         63 
 61.66         80 
 61.68         73 
 61.7          86 
 61.72         87 
 61.74         77 
 61.76         73 
 61.78         80 
 61.8          78 
 61.82         78 
 61.84         75 
 61.86         84 
 61.88         89 
 61.9          72 
 61.92         67 
 61.94         75 
 61.96         85 
 61.98         81 
 62            74 
 62.02         70 
 62.04         61 
 62.06         74 
 62.08         71 
 62.1          77 
 62.12         72 
 62.14         72 
 62.16         76 
 62.18         56 
 62.2          66 
 62.22         69 
 62.24         75 
 62.26         80 
 62.28         66 
 62.3          68 
 62.32         78 
 62.34         58 
 62.36         70 
 62.38         67 
 62.4          68 
 62.42         71 
 62.44         73 
 62.46         66 
 62.48         58 
 62.5          73 
 62.52         61 
 62.54         77 
 62.56         72 
 62.58         67 
 62.6          78 
 62.62         72 
 62.64         67 
 62.66         68 
 62.68         67 
 62.7          78 
 62.72         87 
 62.74         77 
 62.76         70 
 62.78         88 
 62.8          76 
 62.82         97 
 62.84         82 
 62.86         92 
 62.88         89 
 62.9          101 
 62.92         82 
 62.94         112 
 62.96         95 
 62.98         107 
 63            96 
 63.02         118 
 63.04         123 
 63.06         117 
 63.08         137 
 63.1          164 
 63.12         173 
 63.14         252 
 63.16         254 
 63.18         332 
 63.2          405 
 63.22         495 
 63.24         570 
 63.26         699 
 63.28         698 
 63.3          711 
 63.32         757 
 63.34         707 
 63.36         658 
 63.38         633 
 63.4          575 
 63.42         568 
 63.44         505 
 63.46         514 
 63.48         513 
 63.5          430 
 63.52         382 
 63.54         340 
 63.56         278 
 63.58         222 
 63.6          200 
 63.62         152 
 63.64         148 
 63.66         138 
 63.68         124 
 63.7          114 
 63.72         113 
 63.74         82 
 63.76         109 
 63.78         84 
 63.8          67 
 63.82         82 
 63.84         94 
 63.86         98 
 63.88         83 
 63.9          85 
 63.92         76 
 63.94         90 
 63.96         76 
 63.98         86 
 64            82 
 64.02         73 
 64.04         87 
 64.06         72 
 64.08         73 
 64.1          79 
 64.12         74 
 64.14         87 
 64.16         95 
 64.18         83 
 64.2          93 
 64.22         80 
 64.24         94 
 64.26         95 
 64.28         83 
 64.3          100 
 64.32         109 
 64.34         123 
 64.36         114 
 64.38         88 
 64.4          109 
 64.42         113 
 64.44         119 
 64.46         121 
 64.48         130 
 64.5          136 
 64.52         123 
 64.54         149 
 64.56         140 
 64.58         142 
 64.6          174 
 64.62         186 
 64.64         195 
 64.66         189 
 64.68         207 
 64.7          253 
 64.72         241 
 64.74         233 
 64.76         236 
 64.78         262 
 64.8          284 
 64.82         286 
 64.84         315 
 64.86         305 
 64.88         334 
 64.9          376 
 64.92         416 
 64.94         454 
 64.96         492 
 64.98         519 
 65            540 
 65.02         544 
 65.04         573 
 65.06         532 
 65.08         568 
 65.1          543 
 65.12         627 
 65.14         617 
 65.16         651 
 65.18         704 
 65.2          759 
 65.22         830 
 65.24         934 
 65.26         1043 
 65.28         1142 
 65.3          1237 
 65.32         1306 
 65.34         1312 
 65.36         1316 
 65.38         1282 
 65.4          1255 
 65.42         1101 
 65.44         1113 
 65.46         1046 
 65.48         1107 
 65.5          1130 
 65.52         1203 
 65.54         1246 
 65.56         1293 
 65.58         1303 
 65.6          1346 
 65.62         1365 
 65.64         1249 
 65.66         1194 
 65.68         1131 
 65.7          998 
 65.72         953 
 65.74         973 
 65.76         923 
 65.78         872 
 65.8          856 
 65.82         763 
 65.84         697 
 65.86         554 
 65.88         557 
 65.9          483 
 65.92         399 
 65.94         344 
 65.96         321 
 65.98         296 
 66            266 
 66.02         224 
 66.04         195 
 66.06         185 
 66.08         159 
 66.1          181 
 66.12         162 
 66.14         146 
 66.16         121 
 66.18         143 
 66.2          143 
 66.22         101 
 66.24         119 
 66.26         124 
 66.28         120 
 66.3          103 
 66.32         134 
 66.34         94 
 66.36         93 
 66.38         97 
 66.4          103 
 66.42         100 
 66.44         101 
 66.46         82 
 66.48         81 
 66.5          97 
 66.52         83 
 66.54         93 
 66.56         75 
 66.58         94 
 66.6          98 
 66.62         81 
 66.64         95 
 66.66         75 
 66.68         94 
 66.7          97 
 66.72         74 
 66.74         85 
 66.76         71 
 66.78         63 
 66.8          91 
 66.82         84 
 66.84         84 
 66.86         75 
 66.88         91 
 66.9          85 
 66.92         88 
 66.94         111 
 66.96         101 
 66.98         94 
 67            107 
 67.02         102 
 67.04         78 
 67.06         101 
 67.08         101 
 67.1          92 
 67.12         91 
 67.14         95 
 67.16         114 
 67.18         113 
 67.2          102 
 67.22         108 
 67.24         118 
 67.26         113 
 67.28         114 
 67.3          108 
 67.32         104 
 67.34         150 
 67.36         117 
 67.38         122 
 67.4          140 
 67.42         129 
 67.44         141 
 67.46         137 
 67.48         155 
 67.5          177 
 67.52         178 
 67.54         195 
 67.56         257 
 67.58         248 
 67.6          319 
 67.62         369 
 67.64         378 
 67.66         421 
 67.68         462 
 67.7          462 
 67.72         478 
 67.74         493 
 67.76         607 
 67.78         652 
 67.8          768 
 67.82         799 
 67.84         858 
 67.86         902 
 67.88         956 
 67.9          988 
 67.92         993 
 67.94         963 
 67.96         950 
 67.98         948 
 68            906 
 68.02         849 
 68.04         866 
 68.06         856 
 68.08         736 
 68.1          744 
 68.12         634 
 68.14         572 
 68.16         570 
 68.18         492 
 68.2          451 
 68.22         414 
 68.24         360 
 68.26         313 
 68.28         308 
 68.3          269 
 68.32         249 
 68.34         212 
 68.36         193 
 68.38         214 
 68.4          165 
 68.42         154 
 68.44         158 
 68.46         131 
 68.48         156 
 68.5          152 
 68.52         136 
 68.54         119 
 68.56         143 
 68.58         140 
 68.6          128 
 68.62         146 
 68.64         157 
 68.66         142 
 68.68         149 
 68.7          150 
 68.72         162 
 68.74         196 
 68.76         187 
 68.78         217 
 68.8          246 
 68.82         280 
 68.84         279 
 68.86         280 
 68.88         297 
 68.9          370 
 68.92         375 
 68.94         409 
 68.96         467 
 68.98         460 
 69            482 
 69.02         562 
 69.04         538 
 69.06         549 
 69.08         567 
 69.1          551 
 69.12         581 
 69.14         598 
 69.16         587 
 69.18         604 
 69.2          594 
 69.22         642 
 69.24         547 
 69.26         562 
 69.28         607 
 69.3          579 
 69.32         540 
 69.34         552 
 69.36         536 
 69.38         540 
 69.4          528 
 69.42         493 
 69.44         499 
 69.46         495 
 69.48         493 
 69.5          508 
 69.52         594 
 69.54         617 
 69.56         645 
 69.58         667 
 69.6          672 
 69.62         716 
 69.64         806 
 69.66         768 
 69.68         722 
 69.7          640 
 69.72         616 
 69.74         558 
 69.76         532 
 69.78         522 
 69.8          446 
 69.82         441 
 69.84         428 
 69.86         400 
 69.88         365 
 69.9          368 
 69.92         273 
 69.94         241 
 69.96         193 
 69.98         192 
 70            164 
 70.02         134 
 70.04         150 
 70.06         129 
 70.08         113 
 70.1          101 
 70.12         88 
 70.14         95 
 70.16         101 
 70.18         108 
 70.2          85 
 70.22         94 
 70.24         97 
 70.26         90 
 70.28         93 
 70.3          86 
 70.32         96 
 70.34         92 
 70.36         103 
 70.38         62 
 70.4          84 
 70.42         98 
 70.44         89 
 70.46         67 
 70.48         89 
 70.5          74 
 70.52         67 
 70.54         89 
 70.56         79 
 70.58         78 
 70.6          78 
 70.62         74 
 70.64         80 
 70.66         75 
 70.68         81 
 70.7          91 
 70.72         88 
 70.74         65 
 70.76         71 
 70.78         52 
 70.8          72 
 70.82         63 
 70.84         75 
 70.86         90 
 70.88         71 
 70.9          52 
 70.92         78 
 70.94         61 
 70.96         60 
 70.98         93 
 71            62 
 71.02         72 
 71.04         72 
 71.06         77 
 71.08         72 
 71.1          90 
 71.12         69 
 71.14         100 
 71.16         95 
 71.18         92 
 71.2          105 
 71.22         96 
 71.24         124 
 71.26         110 
 71.28         133 
 71.3          128 
 71.32         135 
 71.34         142 
 71.36         180 
 71.38         183 
 71.4          215 
 71.42         247 
 71.44         250 
 71.46         288 
 71.48         320 
 71.5          312 
 71.52         330 
 71.54         373 
 71.56         354 
 71.58         395 
 71.6          422 
 71.62         383 
 71.64         385 
 71.66         363 
 71.68         347 
 71.7          334 
 71.72         328 
 71.74         289 
 71.76         304 
 71.78         260 
 71.8          273 
 71.82         253 
 71.84         260 
 71.86         215 
 71.88         218 
 71.9          200 
 71.92         209 
 71.94         257 
 71.96         263 
 71.98         259 
 72            345 
 72.02         383 
 72.04         387 
 72.06         422 
 72.08         496 
 72.1          458 
 72.12         487 
 72.14         500 
 72.16         479 
 72.18         423 
 72.2          502 
 72.22         481 
 72.24         482 
 72.26         464 
 72.28         499 
 72.3          434 
 72.32         461 
 72.34         409 
 72.36         408 
 72.38         360 
 72.4          384 
 72.42         364 
 72.44         332 
 72.46         319 
 72.48         332 
 72.5          335 
 72.52         320 
 72.54         310 
 72.56         306 
 72.58         303 
 72.6          311 
 72.62         345 
 72.64         295 
 72.66         314 
 72.68         342 
 72.7          320 
 72.72         350 
 72.74         304 
 72.76         374 
 72.78         356 
 72.8          328 
 72.82         359 
 72.84         356 
 72.86         357 
 72.88         394 
 72.9          373 
 72.92         340 
 72.94         417 
 72.96         331 
 72.98         340 
 73            369 
 73.02         344 
 73.04         331 
 73.06         333 
 73.08         316 
 73.1          339 
 73.12         322 
 73.14         371 
 73.16         320 
 73.18         376 
 73.2          396 
 73.22         409 
 73.24         468 
 73.26         445 
 73.28         487 
 73.3          527 
 73.32         541 
 73.34         635 
 73.36         632 
 73.38         673 
 73.4          681 
 73.42         692 
 73.44         713 
 73.46         729 
 73.48         691 
 73.5          695 
 73.52         682 
 73.54         666 
 73.56         695 
 73.58         746 
 73.6          695 
 73.62         696 
 73.64         691 
 73.66         729 
 73.68         715 
 73.7          727 
 73.72         678 
 73.74         727 
 73.76         755 
 73.78         751 
 73.8          716 
 73.82         687 
 73.84         729 
 73.86         684 
 73.88         631 
 73.9          567 
 73.92         555 
 73.93999      516 
 73.96         515 
 73.98         462 
 74            433 
 74.02         425 
 74.04         436 
 74.06         375 
 74.08         338 
 74.1          306 
 74.12         290 
 74.14         250 
 74.16         226 
 74.18         227 
 74.2          172 
 74.22         164 
 74.24         180 
 74.26         167 
 74.28         151 
 74.3          138 
 74.32         123 
 74.34         118 
 74.36         122 
 74.38         108 
 74.4          121 
 74.42         106 
 74.43999      109 
 74.46         92 
 74.48         94 
 74.5          95 
 74.52         91 
 74.54         95 
 74.56         90 
 74.58         95 
 74.6          74 
 74.62         70 
 74.64         89 
 74.66         84 
 74.68         84 
 74.7          95 
 74.72         72 
 74.74         65 
 74.76         77 
 74.78         70 
 74.8          88 
 74.82         81 
 74.84         65 
 74.86         82 
 74.88         75 
 74.9          80 
 74.92         70 
 74.93999      80 
 74.96         66 
 74.98         82 
 75            77 
