Probe 15  Original Data
 3151 
 12            367 
 12.02         389 
 12.04         410 
 12.06         335 
 12.08         392 
 12.1          378 
 12.12         407 
 12.14         369 
 12.16         398 
 12.18         408 
 12.2          421 
 12.22         368 
 12.24         405 
 12.26         374 
 12.28         415 
 12.3          393 
 12.32         388 
 12.34         345 
 12.36         372 
 12.38         438 
 12.4          377 
 12.42         407 
 12.44         392 
 12.46         411 
 12.48         374 
 12.5          407 
 12.52         429 
 12.54         398 
 12.56         350 
 12.58         413 
 12.6          406 
 12.62         374 
 12.64         402 
 12.66         361 
 12.68         390 
 12.7          378 
 12.72         400 
 12.74         413 
 12.76         370 
 12.78         404 
 12.8          431 
 12.82         395 
 12.84         437 
 12.86         414 
 12.88         392 
 12.9          393 
 12.92         424 
 12.94         460 
 12.96         403 
 12.98         389 
 13            352 
 13.02         399 
 13.04         405 
 13.06         390 
 13.08         393 
 13.1          403 
 13.12         423 
 13.14         395 
 13.16         410 
 13.18         397 
 13.2          425 
 13.22         423 
 13.24         438 
 13.26         403 
 13.28         454 
 13.3          429 
 13.32         449 
 13.34         418 
 13.36         458 
 13.38         429 
 13.4          442 
 13.42         465 
 13.44         468 
 13.46         450 
 13.48         495 
 13.5          578 
 13.52         576 
 13.54         670 
 13.56         653 
 13.58         702 
 13.6          666 
 13.62         677 
 13.64         656 
 13.66         580 
 13.68         456 
 13.7          468 
 13.72         413 
 13.74         365 
 13.76         389 
 13.78         348 
 13.8          375 
 13.82         376 
 13.84         374 
 13.86         372 
 13.88         364 
 13.9          344 
 13.92         381 
 13.94         315 
 13.96         336 
 13.98         387 
 14            384 
 14.02         327 
 14.04         354 
 14.06         363 
 14.08         326 
 14.1          352 
 14.12         338 
 14.14         342 
 14.16         300 
 14.18         370 
 14.2          334 
 14.22         340 
 14.24         363 
 14.26         351 
 14.28         355 
 14.3          306 
 14.32         360 
 14.34         326 
 14.36         313 
 14.38         348 
 14.4          376 
 14.42         316 
 14.44         345 
 14.46         340 
 14.48         332 
 14.5          339 
 14.52         360 
 14.54         336 
 14.56         376 
 14.58         362 
 14.6          406 
 14.62         425 
 14.64         489 
 14.66         535 
 14.68         532 
 14.7          596 
 14.72         612 
 14.74         649 
 14.76         711 
 14.78         806 
 14.8          910 
 14.82         992 
 14.84         1048 
 14.86         1223 
 14.88         1369 
 14.9          1605 
 14.92         1841 
 14.94         2099 
 14.96         2531 
 14.98         3129 
 15            3670 
 15.02         4307 
 15.04         4925 
 15.06         5062 
 15.08         5060 
 15.1          4185 
 15.12         3009 
 15.14         1988 
 15.16         1200 
 15.18         743 
 15.2          512 
 15.22         430 
 15.24         394 
 15.26         333 
 15.28         313 
 15.3          304 
 15.32         298 
 15.34         303 
 15.36         266 
 15.38         264 
 15.4          257 
 15.42         271 
 15.44         290 
 15.46         245 
 15.48         278 
 15.5          253 
 15.52         253 
 15.54         240 
 15.56         255 
 15.58         257 
 15.6          245 
 15.62         239 
 15.64         257 
 15.66         255 
 15.68         245 
 15.7          228 
 15.72         266 
 15.74         249 
 15.76         257 
 15.78         250 
 15.8          260 
 15.82         233 
 15.84         238 
 15.86         230 
 15.88         229 
 15.9          230 
 15.92         259 
 15.94         220 
 15.96         235 
 15.98         246 
 16            230 
 16.02         255 
 16.04         205 
 16.06         240 
 16.08         227 
 16.1          228 
 16.12         207 
 16.14         239 
 16.16         219 
 16.18         221 
 16.2          193 
 16.22         219 
 16.24         200 
 16.26         203 
 16.28         221 
 16.3          190 
 16.32         209 
 16.34         193 
 16.36         206 
 16.38         176 
 16.4          215 
 16.42         194 
 16.44         185 
 16.46         192 
 16.48         206 
 16.5          190 
 16.52         215 
 16.54         222 
 16.56         197 
 16.58         212 
 16.6          194 
 16.62         194 
 16.64         212 
 16.66         198 
 16.68         200 
 16.7          188 
 16.72         195 
 16.74         226 
 16.76         193 
 16.78         195 
 16.8          209 
 16.82         206 
 16.84         221 
 16.86         222 
 16.88         208 
 16.9          215 
 16.92         236 
 16.94         222 
 16.96         220 
 16.98         246 
 17            271 
 17.02         240 
 17.04         278 
 17.06         286 
 17.08         299 
 17.1          300 
 17.12         361 
 17.14         379 
 17.16         443 
 17.18         394 
 17.2          505 
 17.22         578 
 17.24         647 
 17.26         726 
 17.28         879 
 17.3          1010 
 17.32         1081 
 17.34         1198 
 17.36         1163 
 17.38         1071 
 17.4          972 
 17.42         755 
 17.44         574 
 17.46         469 
 17.48         364 
 17.5          300 
 17.52         260 
 17.54         271 
 17.56         266 
 17.58         222 
 17.6          244 
 17.62         260 
 17.64         271 
 17.66         253 
 17.68         251 
 17.7          248 
 17.72         279 
 17.74         319 
 17.76         321 
 17.78         308 
 17.8          286 
 17.82         320 
 17.84         322 
 17.86         300 
 17.88         267 
 17.9          249 
 17.92         229 
 17.94         235 
 17.96         244 
 17.98         211 
 18            231 
 18.02         251 
 18.04         244 
 18.06         306 
 18.08         298 
 18.1          311 
 18.12         316 
 18.14         356 
 18.16         422 
 18.18         450 
 18.2          563 
 18.22         620 
 18.24         660 
 18.26         720 
 18.28         741 
 18.3          743 
 18.32         692 
 18.34         555 
 18.36         459 
 18.38         332 
 18.4          268 
 18.42         259 
 18.44         191 
 18.46         196 
 18.48         186 
 18.5          170 
 18.52         153 
 18.54         162 
 18.56         174 
 18.58         157 
 18.6          164 
 18.62         174 
 18.64         152 
 18.66         163 
 18.68         159 
 18.7          149 
 18.72         186 
 18.74         162 
 18.76         160 
 18.78         147 
 18.8          155 
 18.82         134 
 18.84         131 
 18.86         169 
 18.88         143 
 18.9          159 
 18.92         141 
 18.94         173 
 18.96         149 
 18.98         168 
 19            158 
 19.02         145 
 19.04         145 
 19.06         147 
 19.08         121 
 19.1          158 
 19.12         153 
 19.14         137 
 19.16         144 
 19.18         137 
 19.2          135 
 19.22         146 
 19.24         138 
 19.26         165 
 19.28         153 
 19.3          141 
 19.32         152 
 19.34         135 
 19.36         139 
 19.38         145 
 19.4          165 
 19.42         161 
 19.44         149 
 19.46         155 
 19.48         156 
 19.5          149 
 19.52         142 
 19.54         150 
 19.56         167 
 19.58         147 
 19.6          163 
 19.62         157 
 19.64         158 
 19.66         143 
 19.68         183 
 19.7          173 
 19.72         200 
 19.74         170 
 19.76         155 
 19.78         180 
 19.8          180 
 19.82         162 
 19.84         169 
 19.86         172 
 19.88         150 
 19.9          141 
 19.92         145 
 19.94         148 
 19.96         170 
 19.98         174 
 20            150 
 20.02         130 
 20.04         140 
 20.06         178 
 20.08         167 
 20.1          173 
 20.12         150 
 20.14         146 
 20.16         164 
 20.18         143 
 20.2          138 
 20.22         144 
 20.24         174 
 20.26         162 
 20.28         164 
 20.3          172 
 20.32         192 
 20.34         190 
 20.36         176 
 20.38         183 
 20.4          181 
 20.42         161 
 20.44         203 
 20.46         179 
 20.48         185 
 20.5          223 
 20.52         188 
 20.54         185 
 20.56         193 
 20.58         197 
 20.6          207 
 20.62         191 
 20.64         220 
 20.66         206 
 20.68         206 
 20.7          218 
 20.72         250 
 20.74         250 
 20.76         256 
 20.78         313 
 20.8          337 
 20.82         353 
 20.84         382 
 20.86         464 
 20.88         560 
 20.9          649 
 20.92         712 
 20.94         858 
 20.96         1019 
 20.98         1175 
 21            1424 
 21.02         1606 
 21.04         1953 
 21.06         2426 
 21.08         2854 
 21.1          3513 
 21.12         4273 
 21.14         5341 
 21.16         6505 
 21.18         8430 
 21.2          10075 
 21.22         12646 
 21.24         14708 
 21.26         17033 
 21.28         18425 
 21.3          18650 
 21.32         17519 
 21.34         15893 
 21.36         13984 
 21.38         12447 
 21.4          11918 
 21.42         12057 
 21.44         12382 
 21.46         12126 
 21.48         11299 
 21.5          9808 
 21.52         7535 
 21.54         5419 
 21.56         3703 
 21.58         2579 
 21.6          1800 
 21.62         1317 
 21.64         1134 
 21.66         1013 
 21.68         896 
 21.7          847 
 21.72         815 
 21.74         774 
 21.76         725 
 21.78         602 
 21.8          500 
 21.82         484 
 21.84         380 
 21.86         309 
 21.88         238 
 21.9          276 
 21.92         230 
 21.94         225 
 21.96         241 
 21.98         213 
 22            226 
 22.02         203 
 22.04         202 
 22.06         202 
 22.08         194 
 22.1          206 
 22.12         228 
 22.14         207 
 22.16         193 
 22.18         174 
 22.2          195 
 22.22         146 
 22.24         168 
 22.26         164 
 22.28         149 
 22.3          161 
 22.32         152 
 22.34         140 
 22.36         166 
 22.38         169 
 22.4          138 
 22.42         161 
 22.44         145 
 22.46         144 
 22.48         146 
 22.5          160 
 22.52         154 
 22.54         140 
 22.56         180 
 22.58         144 
 22.6          161 
 22.62         156 
 22.64         152 
 22.66         132 
 22.68         167 
 22.7          134 
 22.72         166 
 22.74         147 
 22.76         168 
 22.78         173 
 22.8          147 
 22.82         176 
 22.84         163 
 22.86         156 
 22.88         160 
 22.9          156 
 22.92         168 
 22.94         169 
 22.96         152 
 22.98         159 
 23            150 
 23.02         167 
 23.04         166 
 23.06         191 
 23.08         190 
 23.1          189 
 23.12         197 
 23.14         212 
 23.16         214 
 23.18         250 
 23.2          288 
 23.22         304 
 23.24         281 
 23.26         365 
 23.28         417 
 23.3          398 
 23.32         443 
 23.34         420 
 23.36         377 
 23.38         326 
 23.4          305 
 23.42         231 
 23.44         246 
 23.46         221 
 23.48         254 
 23.5          213 
 23.52         239 
 23.54         236 
 23.56         253 
 23.58         317 
 23.6          301 
 23.62         385 
 23.64         375 
 23.66         403 
 23.68         373 
 23.7          381 
 23.72         415 
 23.74         341 
 23.76         280 
 23.78         256 
 23.8          196 
 23.82         209 
 23.84         194 
 23.86         187 
 23.88         204 
 23.9          201 
 23.92         238 
 23.94         259 
 23.96         268 
 23.98         295 
 24            318 
 24.02         368 
 24.04         440 
 24.06         519 
 24.08         542 
 24.1          547 
 24.12         591 
 24.14         504 
 24.16         464 
 24.18         387 
 24.2          362 
 24.22         273 
 24.24         205 
 24.26         215 
 24.28         192 
 24.3          187 
 24.32         160 
 24.34         151 
 24.36         168 
 24.38         139 
 24.4          158 
 24.42         144 
 24.44         163 
 24.46         172 
 24.48         163 
 24.5          202 
 24.52         199 
 24.54         167 
 24.56         174 
 24.58         189 
 24.6          217 
 24.62         239 
 24.64         276 
 24.66         295 
 24.68         340 
 24.7          373 
 24.72         447 
 24.74         493 
 24.76         573 
 24.78         693 
 24.8          771 
 24.82         850 
 24.84         1026 
 24.86         1253 
 24.88         1448 
 24.9          1780 
 24.92         2218 
 24.94         2670 
 24.96         3327 
 24.98         4254 
 25            5500 
 25.02         7122 
 25.04         9174 
 25.06         11963 
 25.08         15176 
 25.1          17914 
 25.12         20153 
 25.14         20969 
 25.16         19481 
 25.18         16639 
 25.2          13344 
 25.22         9564 
 25.24         6519 
 25.26         4040 
 25.28         2564 
 25.3          1563 
 25.32         1134 
 25.34         871 
 25.36         710 
 25.38         642 
 25.4          535 
 25.42         456 
 25.44         405 
 25.46         373 
 25.48         318 
 25.5          288 
 25.52         289 
 25.54         274 
 25.56         261 
 25.58         288 
 25.6          282 
 25.62         231 
 25.64         254 
 25.66         287 
 25.68         273 
 25.7          296 
 25.72         293 
 25.74         299 
 25.76         302 
 25.78         333 
 25.8          325 
 25.82         360 
 25.84         359 
 25.86         380 
 25.88         434 
 25.9          418 
 25.92         461 
 25.94         489 
 25.96         493 
 25.98         575 
 26            631 
 26.02         616 
 26.04         685 
 26.06         663 
 26.08         672 
 26.1          620 
 26.12         567 
 26.14         537 
 26.16         453 
 26.18         475 
 26.2          446 
 26.22         459 
 26.24         462 
 26.26         468 
 26.28         458 
 26.3          421 
 26.32         429 
 26.34         404 
 26.36         338 
 26.38         304 
 26.4          250 
 26.42         240 
 26.44         196 
 26.46         170 
 26.48         188 
 26.5          179 
 26.52         150 
 26.54         150 
 26.56         165 
 26.58         185 
 26.6          170 
 26.62         161 
 26.64         160 
 26.66         174 
 26.68         161 
 26.7          151 
 26.72         140 
 26.74         144 
 26.76         150 
 26.78         150 
 26.8          165 
 26.82         145 
 26.84         160 
 26.86         200 
 26.88         149 
 26.9          195 
 26.92         226 
 26.94         228 
 26.96         224 
 26.98         288 
 27            282 
 27.02         335 
 27.04         370 
 27.06         386 
 27.08         359 
 27.1          321 
 27.12         329 
 27.14         275 
 27.16         255 
 27.18         195 
 27.2          157 
 27.22         161 
 27.24         143 
 27.26         157 
 27.28         153 
 27.3          157 
 27.32         155 
 27.34         151 
 27.36         133 
 27.38         142 
 27.4          156 
 27.42         136 
 27.44         162 
 27.46         150 
 27.48         167 
 27.5          158 
 27.52         144 
 27.54         161 
 27.56         153 
 27.58         139 
 27.6          127 
 27.62         139 
 27.64         126 
 27.66         131 
 27.68         142 
 27.7          115 
 27.72         141 
 27.74         105 
 27.76         99 
 27.78         128 
 27.8          123 
 27.82         118 
 27.84         136 
 27.86         112 
 27.88         110 
 27.9          124 
 27.92         120 
 27.94         151 
 27.96         118 
 27.98         135 
 28            126 
 28.02         132 
 28.04         148 
 28.06         149 
 28.08         141 
 28.1          134 
 28.12         144 
 28.14         132 
 28.16         165 
 28.18         141 
 28.2          159 
 28.22         148 
 28.24         118 
 28.26         124 
 28.28         145 
 28.3          142 
 28.32         132 
 28.34         130 
 28.36         158 
 28.38         145 
 28.4          162 
 28.42         173 
 28.44         180 
 28.46         183 
 28.48         230 
 28.5          206 
 28.52         242 
 28.54         250 
 28.56         287 
 28.58         260 
 28.6          249 
 28.62         231 
 28.64         177 
 28.66         176 
 28.68         187 
 28.7          156 
 28.72         158 
 28.74         135 
 28.76         133 
 28.78         117 
 28.8          124 
 28.82         122 
 28.84         151 
 28.86         133 
 28.88         119 
 28.9          126 
 28.92         123 
 28.94         134 
 28.96         144 
 28.98         153 
 29            144 
 29.02         181 
 29.04         176 
 29.06         199 
 29.08         188 
 29.1          214 
 29.12         203 
 29.14         213 
 29.16         269 
 29.18         257 
 29.2          260 
 29.22         274 
 29.24         265 
 29.26         328 
 29.28         299 
 29.3          274 
 29.32         236 
 29.34         262 
 29.36         242 
 29.38         217 
 29.4          239 
 29.42         186 
 29.44         187 
 29.46         179 
 29.48         159 
 29.5          159 
 29.52         132 
 29.54         127 
 29.56         144 
 29.58         131 
 29.6          135 
 29.62         127 
 29.64         150 
 29.66         164 
 29.68         152 
 29.7          163 
 29.72         158 
 29.74         178 
 29.76         157 
 29.78         171 
 29.8          211 
 29.82         199 
 29.84         198 
 29.86         225 
 29.88         222 
 29.9          194 
 29.92         267 
 29.94         234 
 29.96         261 
 29.98         270 
 30            321 
 30.02         347 
 30.04         352 
 30.06         395 
 30.08         415 
 30.1          488 
 30.12         566 
 30.14         626 
 30.16         741 
 30.18         950 
 30.2          1161 
 30.22         1450 
 30.24         1848 
 30.26         2448 
 30.28         3192 
 30.3          4132 
 30.32         5559 
 30.34         7158 
 30.36         8716 
 30.38         10541 
 30.4          11332 
 30.42         11954 
 30.44         10959 
 30.46         9743 
 30.48         7962 
 30.5          6377 
 30.52         4816 
 30.54         3530 
 30.56         2499 
 30.58         1793 
 30.6          1439 
 30.62         1136 
 30.64         900 
 30.66         751 
 30.68         620 
 30.7          521 
 30.72         451 
 30.74         389 
 30.76         377 
 30.78         309 
 30.8          333 
 30.82         294 
 30.84         305 
 30.86         274 
 30.88         270 
 30.9          244 
 30.92         232 
 30.94         220 
 30.96         165 
 30.98         249 
 31            226 
 31.02         213 
 31.04         206 
 31.06         216 
 31.08         221 
 31.1          200 
 31.12         189 
 31.14         181 
 31.16         220 
 31.18         208 
 31.2          215 
 31.22         227 
 31.24         241 
 31.26         259 
 31.28         294 
 31.3          327 
 31.32         381 
 31.34         420 
 31.36         415 
 31.38         452 
 31.4          413 
 31.42         393 
 31.44         397 
 31.46         354 
 31.48         342 
 31.5          280 
 31.52         266 
 31.54         229 
 31.56         204 
 31.58         192 
 31.6          205 
 31.62         202 
 31.64         216 
 31.66         219 
 31.68         221 
 31.7          258 
 31.72         305 
 31.74         316 
 31.76         339 
 31.78         323 
 31.8          367 
 31.82         325 
 31.84         320 
 31.86         271 
 31.88         231 
 31.9          213 
 31.92         153 
 31.94         153 
 31.96         146 
 31.98         143 
 32            134 
 32.02         112 
 32.04         111 
 32.06         118 
 32.08         95 
 32.1          120 
 32.12         83 
 32.14         102 
 32.16         123 
 32.18         106 
 32.2          112 
 32.22         126 
 32.24         109 
 32.26         100 
 32.28         87 
 32.3          99 
 32.32         122 
 32.34         95 
 32.36         91 
 32.38         112 
 32.4          121 
 32.42         125 
 32.44         125 
 32.46         115 
 32.48         104 
 32.5          109 
 32.52         112 
 32.54         98 
 32.56         97 
 32.58         111 
 32.6          97 
 32.62         124 
 32.64         100 
 32.66         108 
 32.68         103 
 32.7          121 
 32.72         117 
 32.74         114 
 32.76         107 
 32.78         120 
 32.8          120 
 32.82         113 
 32.84         122 
 32.86         151 
 32.88         132 
 32.9          128 
 32.92         165 
 32.94         163 
 32.96         152 
 32.98         172 
 33            202 
 33.02         198 
 33.04         224 
 33.06         243 
 33.08         298 
 33.1          338 
 33.12         357 
 33.14         407 
 33.16         559 
 33.18         706 
 33.2          822 
 33.22         1162 
 33.24         1559 
 33.26         1977 
 33.28         2358 
 33.3          2931 
 33.32         3239 
 33.34         3403 
 33.36         3325 
 33.38         3173 
 33.4          2787 
 33.42         2288 
 33.44         1914 
 33.46         1499 
 33.48         1133 
 33.5          852 
 33.52         680 
 33.54         563 
 33.56         436 
 33.58         428 
 33.6          370 
 33.62         377 
 33.64         369 
 33.66         359 
 33.68         411 
 33.7          446 
 33.72         488 
 33.74         569 
 33.76         722 
 33.78         897 
 33.8          1007 
 33.82         1366 
 33.84         1603 
 33.86         2060 
 33.88         2717 
 33.9          3466 
 33.92         4442 
 33.94         5347 
 33.96         6249 
 33.98         6798 
 34            7093 
 34.02         6847 
 34.04         6230 
 34.06         5308 
 34.08         4411 
 34.1          3545 
 34.12         2662 
 34.14         1873 
 34.16         1299 
 34.18         912 
 34.2          625 
 34.22         520 
 34.24         384 
 34.26         344 
 34.28         308 
 34.3          248 
 34.32         216 
 34.34         230 
 34.36         197 
 34.38         167 
 34.4          167 
 34.42         158 
 34.44         158 
 34.46         143 
 34.48         136 
 34.5          141 
 34.52         137 
 34.54         128 
 34.56         128 
 34.58         152 
 34.6          114 
 34.62         113 
 34.64         120 
 34.66         104 
 34.68         122 
 34.7          110 
 34.72         113 
 34.74         110 
 34.76         110 
 34.78         130 
 34.8          114 
 34.82         132 
 34.84         131 
 34.86         143 
 34.88         121 
 34.9          127 
 34.92         111 
 34.94         136 
 34.96         134 
 34.98         101 
 35            115 
 35.02         147 
 35.04         142 
 35.06         106 
 35.08         139 
 35.1          122 
 35.12         128 
 35.14         112 
 35.16         143 
 35.18         128 
 35.2          127 
 35.22         130 
 35.24         134 
 35.26         117 
 35.28         114 
 35.3          103 
 35.32         108 
 35.34         97 
 35.36         119 
 35.38         103 
 35.4          104 
 35.42         100 
 35.44         100 
 35.46         93 
 35.48         93 
 35.5          130 
 35.52         114 
 35.54         99 
 35.56         124 
 35.58         131 
 35.6          113 
 35.62         143 
 35.64         127 
 35.66         149 
 35.68         141 
 35.7          131 
 35.72         158 
 35.74         153 
 35.76         144 
 35.78         142 
 35.8          125 
 35.82         180 
 35.84         145 
 35.86         131 
 35.88         126 
 35.9          137 
 35.92         139 
 35.94         148 
 35.96         136 
 35.98         148 
 36            135 
 36.02         130 
 36.04         128 
 36.06         105 
 36.08         119 
 36.1          111 
 36.12         134 
 36.14         112 
 36.16         95 
 36.18         85 
 36.2          123 
 36.22         95 
 36.24         92 
 36.26         93 
 36.28         105 
 36.3          93 
 36.32         94 
 36.34         80 
 36.36         113 
 36.38         86 
 36.4          82 
 36.42         79 
 36.44         89 
 36.46         106 
 36.48         93 
 36.5          87 
 36.52         102 
 36.54         91 
 36.56         105 
 36.58         95 
 36.6          94 
 36.62         83 
 36.64         92 
 36.66         109 
 36.68         97 
 36.7          113 
 36.72         141 
 36.74         117 
 36.76         119 
 36.78         125 
 36.8          135 
 36.82         156 
 36.84         171 
 36.86         172 
 36.88         176 
 36.9          185 
 36.92         189 
 36.94         194 
 36.96         230 
 36.98         252 
 37            269 
 37.02         254 
 37.04         290 
 37.06         320 
 37.08         323 
 37.1          360 
 37.12         346 
 37.14         410 
 37.16         367 
 37.18         421 
 37.2          394 
 37.22         398 
 37.24         423 
 37.26         453 
 37.28         459 
 37.3          499 
 37.32         586 
 37.34         685 
 37.36         791 
 37.38         980 
 37.4          1344 
 37.42         1675 
 37.44         2286 
 37.46         2949 
 37.48         3762 
 37.5          4463 
 37.52         5223 
 37.54         5813 
 37.56         6049 
 37.58         6211 
 37.6          6326 
 37.62         6032 
 37.64         5709 
 37.66         5066 
 37.68         4328 
 37.7          3606 
 37.72         2981 
 37.74         2394 
 37.76         1899 
 37.78         1363 
 37.8          1080 
 37.82         839 
 37.84         736 
 37.86         512 
 37.88         455 
 37.9          399 
 37.92         333 
 37.94         268 
 37.96         270 
 37.98         215 
 38            210 
 38.02         223 
 38.04         165 
 38.06         169 
 38.08         174 
 38.1          154 
 38.12         165 
 38.14         144 
 38.16         156 
 38.18         134 
 38.2          154 
 38.22         141 
 38.24         120 
 38.26         156 
 38.28         140 
 38.3          124 
 38.32         135 
 38.34         135 
 38.36         117 
 38.38         132 
 38.4          121 
 38.42         143 
 38.44         140 
 38.46         104 
 38.48         119 
 38.5          115 
 38.52         96 
 38.54         115 
 38.56         103 
 38.58         104 
 38.6          93 
 38.62         98 
 38.64         119 
 38.66         102 
 38.68         100 
 38.7          98 
 38.72         102 
 38.74         89 
 38.76         104 
 38.78         102 
 38.8          109 
 38.82         93 
 38.84         95 
 38.86         113 
 38.88         85 
 38.9          118 
 38.92         120 
 38.94         115 
 38.96         124 
 38.98         126 
 39            134 
 39.02         103 
 39.04         119 
 39.06         156 
 39.08         128 
 39.1          133 
 39.12         145 
 39.14         162 
 39.16         176 
 39.18         185 
 39.2          183 
 39.22         228 
 39.24         262 
 39.26         287 
 39.28         267 
 39.3          269 
 39.32         252 
 39.34         239 
 39.36         214 
 39.38         203 
 39.4          184 
 39.42         180 
 39.44         173 
 39.46         148 
 39.48         143 
 39.5          134 
 39.52         121 
 39.54         132 
 39.56         125 
 39.58         138 
 39.6          133 
 39.62         123 
 39.64         110 
 39.66         125 
 39.68         130 
 39.7          136 
 39.72         109 
 39.74         141 
 39.76         159 
 39.78         151 
 39.8          162 
 39.82         159 
 39.84         178 
 39.86         169 
 39.88         162 
 39.9          172 
 39.92         173 
 39.94         192 
 39.96         179 
 39.98         173 
 40            167 
 40.02         200 
 40.04         155 
 40.06         190 
 40.08         185 
 40.1          199 
 40.12         195 
 40.14         176 
 40.16         199 
 40.18         208 
 40.2          206 
 40.22         187 
 40.24         169 
 40.26         153 
 40.28         160 
 40.3          118 
 40.32         132 
 40.34         122 
 40.36         109 
 40.38         110 
 40.4          104 
 40.42         115 
 40.44         116 
 40.46         101 
 40.48         83 
 40.5          98 
 40.52         89 
 40.54         104 
 40.56         92 
 40.58         106 
 40.6          82 
 40.62         84 
 40.64         84 
 40.66         113 
 40.68         106 
 40.7          111 
 40.72         104 
 40.74         110 
 40.76         104 
 40.78         131 
 40.8          117 
 40.82         138 
 40.84         140 
 40.86         125 
 40.88         147 
 40.9          129 
 40.92         116 
 40.94         135 
 40.96         125 
 40.98         149 
 41            131 
 41.02         121 
 41.04         114 
 41.06         107 
 41.08         88 
 41.1          98 
 41.12         106 
 41.14         119 
 41.16         97 
 41.18         97 
 41.2          95 
 41.22         113 
 41.24         89 
 41.26         89 
 41.28         100 
 41.3          94 
 41.32         109 
 41.34         85 
 41.36         104 
 41.38         85 
 41.4          95 
 41.42         98 
 41.44         107 
 41.46         116 
 41.48         112 
 41.5          106 
 41.52         101 
 41.54         109 
 41.56         112 
 41.58         101 
 41.6          120 
 41.62         123 
 41.64         98 
 41.66         107 
 41.68         118 
 41.7          98 
 41.72         119 
 41.74         127 
 41.76         113 
 41.78         118 
 41.8          113 
 41.82         128 
 41.84         128 
 41.86         115 
 41.88         126 
 41.9          131 
 41.92         117 
 41.94         114 
 41.96         123 
 41.98         121 
 42            98 
 42.02         115 
 42.04         103 
 42.06         124 
 42.08         109 
 42.1          112 
 42.12         107 
 42.14         132 
 42.16         101 
 42.18         88 
 42.2          112 
 42.22         119 
 42.24         118 
 42.26         97 
 42.28         108 
 42.3          97 
 42.32         108 
 42.34         104 
 42.36         107 
 42.38         87 
 42.4          91 
 42.42         107 
 42.44         97 
 42.46         84 
 42.48         89 
 42.5          91 
 42.52         100 
 42.54         97 
 42.56         109 
 42.58         109 
 42.6          125 
 42.62         115 
 42.64         123 
 42.66         133 
 42.68         149 
 42.7          146 
 42.72         158 
 42.74         138 
 42.76         156 
 42.78         152 
 42.8          160 
 42.82         181 
 42.84         160 
 42.86         129 
 42.88         151 
 42.9          137 
 42.92         108 
 42.94         141 
 42.96         137 
 42.98         119 
 43            102 
 43.02         120 
 43.04         133 
 43.06         132 
 43.08         125 
 43.1          107 
 43.12         144 
 43.14         154 
 43.16         160 
 43.18         194 
 43.2          212 
 43.22         256 
 43.24         300 
 43.26         402 
 43.28         474 
 43.3          590 
 43.32         642 
 43.34         723 
 43.36         786 
 43.38         775 
 43.4          801 
 43.42         754 
 43.44         674 
 43.46         642 
 43.48         601 
 43.5          519 
 43.52         416 
 43.54         395 
 43.56         341 
 43.58         267 
 43.6          225 
 43.62         204 
 43.64         185 
 43.66         194 
 43.68         170 
 43.7          180 
 43.72         153 
 43.74         142 
 43.76         164 
 43.78         130 
 43.8          130 
 43.82         147 
 43.84         116 
 43.86         145 
 43.88         118 
 43.9          138 
 43.92         150 
 43.94         123 
 43.96         124 
 43.98         150 
 44            123 
 44.02         107 
 44.04         121 
 44.06         117 
 44.08         125 
 44.1          125 
 44.12         109 
 44.14         121 
 44.16         117 
 44.18         136 
 44.2          131 
 44.22         107 
 44.24         131 
 44.26         123 
 44.28         124 
 44.3          105 
 44.32         112 
 44.34         93 
 44.36         110 
 44.38         93 
 44.4          95 
 44.42         112 
 44.44         89 
 44.46         84 
 44.48         91 
 44.5          83 
 44.52         104 
 44.54         89 
 44.56         86 
 44.58         97 
 44.6          105 
 44.62         87 
 44.64         107 
 44.66         96 
 44.68         120 
 44.7          126 
 44.72         103 
 44.74         102 
 44.76         94 
 44.78         90 
 44.8          79 
 44.82         92 
 44.84         117 
 44.86         112 
 44.88         102 
 44.9          92 
 44.92         104 
 44.94         138 
 44.96         101 
 44.98         132 
 45            117 
 45.02         134 
 45.04         133 
 45.06         129 
 45.08         122 
 45.1          152 
 45.12         146 
 45.14         206 
 45.16         203 
 45.18         238 
 45.2          265 
 45.22         298 
 45.24         326 
 45.26         390 
 45.28         421 
 45.3          500 
 45.32         630 
 45.34         639 
 45.36         815 
 45.38         904 
 45.4          959 
 45.42         976 
 45.44         1086 
 45.46         1045 
 45.48         972 
 45.5          994 
 45.52         942 
 45.54         937 
 45.56         825 
 45.58         800 
 45.6          729 
 45.62         733 
 45.64         604 
 45.66         589 
 45.68         591 
 45.7          621 
 45.72         632 
 45.74         673 
 45.76         743 
 45.78         748 
 45.8          746 
 45.82         744 
 45.84         714 
 45.86         720 
 45.88         648 
 45.9          650 
 45.92         676 
 45.94         627 
 45.96         601 
 45.98         598 
 46            585 
 46.02         587 
 46.04         558 
 46.06         563 
 46.08         568 
 46.1          506 
 46.12         463 
 46.14         401 
 46.16         369 
 46.18         356 
 46.2          364 
 46.22         346 
 46.24         308 
 46.26         312 
 46.28         324 
 46.3          364 
 46.32         366 
 46.34         371 
 46.36         382 
 46.38         428 
 46.4          437 
 46.42         508 
 46.44         475 
 46.46         572 
 46.48         611 
 46.5          530 
 46.52         582 
 46.54         562 
 46.56         472 
 46.58         490 
 46.6          452 
 46.62         391 
 46.64         382 
 46.66         362 
 46.68         313 
 46.7          275 
 46.72         265 
 46.74         230 
 46.76         205 
 46.78         223 
 46.8          156 
 46.82         185 
 46.84         171 
 46.86         149 
 46.88         152 
 46.9          144 
 46.92         154 
 46.94         154 
 46.96         155 
 46.98         135 
 47            123 
 47.02         137 
 47.04         125 
 47.06         108 
 47.08         125 
 47.1          140 
 47.12         108 
 47.14         122 
 47.16         134 
 47.18         107 
 47.2          107 
 47.22         93 
 47.24         124 
 47.26         94 
 47.28         101 
 47.3          91 
 47.32         94 
 47.34         102 
 47.36         115 
 47.38         89 
 47.4          92 
 47.42         99 
 47.44         82 
 47.46         89 
 47.48         76 
 47.5          79 
 47.52         88 
 47.54         78 
 47.56         92 
 47.58         101 
 47.6          99 
 47.62         104 
 47.64         112 
 47.66         105 
 47.68         102 
 47.7          101 
 47.72         113 
 47.74         132 
 47.76         109 
 47.78         137 
 47.8          126 
 47.82         121 
 47.84         114 
 47.86         134 
 47.88         119 
 47.9          140 
 47.92         130 
 47.94         117 
 47.96         128 
 47.98         108 
 48            91 
 48.02         104 
 48.04         118 
 48.06         125 
 48.08         120 
 48.1          98 
 48.12         98 
 48.14         112 
 48.16         97 
 48.18         120 
 48.2          108 
 48.22         107 
 48.24         120 
 48.26         106 
 48.28         113 
 48.3          140 
 48.32         134 
 48.34         137 
 48.36         144 
 48.38         130 
 48.4          169 
 48.42         160 
 48.44         154 
 48.46         159 
 48.48         171 
 48.5          177 
 48.52         198 
 48.54         242 
 48.56         229 
 48.58         270 
 48.6          296 
 48.62         343 
 48.64         380 
 48.66         405 
 48.68         524 
 48.7          661 
 48.72         691 
 48.74         965 
 48.76         1175 
 48.78         1576 
 48.8          1938 
 48.82         2451 
 48.84         2954 
 48.86         3400 
 48.88         3570 
 48.9          3660 
 48.92         3529 
 48.94         3329 
 48.96         3034 
 48.98         2881 
 49            2782 
 49.02         2724 
 49.04         2638 
 49.06         2643 
 49.08         2581 
 49.1          2453 
 49.12         2348 
 49.14         2169 
 49.16         2071 
 49.18         1886 
 49.2          1699 
 49.22         1542 
 49.24         1390 
 49.26         1249 
 49.28         1077 
 49.3          895 
 49.32         783 
 49.34         599 
 49.36         516 
 49.38         463 
 49.4          354 
 49.42         327 
 49.44         302 
 49.46         265 
 49.48         214 
 49.5          201 
 49.52         227 
 49.54         190 
 49.56         193 
 49.58         199 
 49.6          159 
 49.62         156 
 49.64         125 
 49.66         133 
 49.68         139 
 49.7          123 
 49.72         119 
 49.74         116 
 49.76         105 
 49.78         120 
 49.8          107 
 49.82         116 
 49.84         112 
 49.86         119 
 49.88         115 
 49.9          129 
 49.92         109 
 49.94         139 
 49.96         150 
 49.98         131 
 50            142 
 50.02         137 
 50.04         143 
 50.06         158 
 50.08         127 
 50.1          126 
 50.12         130 
 50.14         119 
 50.16         120 
 50.18         109 
 50.2          118 
 50.22         92 
 50.24         94 
 50.26         114 
 50.28         98 
 50.3          95 
 50.32         106 
 50.34         98 
 50.36         103 
 50.38         105 
 50.4          88 
 50.42         89 
 50.44         94 
 50.46         93 
 50.48         92 
 50.5          88 
 50.52         130 
 50.54         94 
 50.56         113 
 50.58         93 
 50.6          122 
 50.62         105 
 50.64         108 
 50.66         93 
 50.68         126 
 50.7          108 
 50.72         121 
 50.74         125 
 50.76         139 
 50.78         128 
 50.8          159 
 50.82         165 
 50.84         193 
 50.86         202 
 50.88         205 
 50.9          274 
 50.92         311 
 50.94         403 
 50.96         476 
 50.98         537 
 51            580 
 51.02         594 
 51.04         590 
 51.06         626 
 51.08         586 
 51.1          568 
 51.12         576 
 51.14         563 
 51.16         574 
 51.18         578 
 51.2          599 
 51.22         625 
 51.24         665 
 51.26         631 
 51.28         676 
 51.3          704 
 51.32         745 
 51.34         765 
 51.36         776 
 51.38         738 
 51.4          738 
 51.42         786 
 51.44         784 
 51.46         897 
 51.48         1027 
 51.5          1166 
 51.52         1443 
 51.54         1896 
 51.56         2137 
 51.58         2424 
 51.6          2625 
 51.62         2653 
 51.64         2615 
 51.66         2523 
 51.68         2441 
 51.7          2422 
 51.72         2449 
 51.74         2306 
 51.76         2171 
 51.78         1930 
 51.8          1582 
 51.82         1404 
 51.84         1210 
 51.86         1068 
 51.88         900 
 51.9          809 
 51.92         708 
 51.94         573 
 51.96         451 
 51.98         409 
 52            333 
 52.02         260 
 52.04         277 
 52.06         208 
 52.08         178 
 52.1          176 
 52.12         165 
 52.14         160 
 52.16         171 
 52.18         133 
 52.2          128 
 52.22         141 
 52.24         130 
 52.26         105 
 52.28         112 
 52.3          127 
 52.32         92 
 52.34         92 
 52.36         122 
 52.38         123 
 52.4          105 
 52.42         80 
 52.44         96 
 52.46         91 
 52.48         98 
 52.5          105 
 52.52         101 
 52.54         90 
 52.56         113 
 52.58         102 
 52.6          107 
 52.62         115 
 52.64         112 
 52.66         104 
 52.68         113 
 52.7          120 
 52.72         104 
 52.74         103 
 52.76         108 
 52.78         98 
 52.8          114 
 52.82         118 
 52.84         123 
 52.86         105 
 52.88         123 
 52.9          103 
 52.92         102 
 52.94         93 
 52.96         101 
 52.98         103 
 53            108 
 53.02         111 
 53.04         102 
 53.06         101 
 53.08         124 
 53.1          106 
 53.12         102 
 53.14         112 
 53.16         112 
 53.18         114 
 53.2          122 
 53.22         117 
 53.24         128 
 53.26         108 
 53.28         93 
 53.3          142 
 53.32         141 
 53.34         127 
 53.36         150 
 53.38         157 
 53.4          173 
 53.42         158 
 53.44         188 
 53.46         188 
 53.48         208 
 53.5          218 
 53.52         272 
 53.54         247 
 53.56         271 
 53.58         284 
 53.6          335 
 53.62         332 
 53.64         341 
 53.66         308 
 53.68         369 
 53.7          306 
 53.72         307 
 53.74         257 
 53.76         302 
 53.78         297 
 53.8          243 
 53.82         236 
 53.84         251 
 53.86         232 
 53.88         224 
 53.9          172 
 53.92         207 
 53.94         186 
 53.96         175 
 53.98         182 
 54            171 
 54.02         151 
 54.04         166 
 54.06         157 
 54.08         153 
 54.1          154 
 54.12         136 
 54.14         135 
 54.16         146 
 54.18         125 
 54.2          158 
 54.22         133 
 54.24         132 
 54.26         133 
 54.28         148 
 54.3          140 
 54.32         128 
 54.34         126 
 54.36         127 
 54.38         119 
 54.4          118 
 54.42         105 
 54.44         114 
 54.46         122 
 54.48         115 
 54.5          132 
 54.52         107 
 54.54         109 
 54.56         103 
 54.58         101 
 54.6          111 
 54.62         110 
 54.64         113 
 54.66         105 
 54.68         107 
 54.7          106 
 54.72         98 
 54.74         124 
 54.76         112 
 54.78         101 
 54.8          113 
 54.82         113 
 54.84         100 
 54.86         105 
 54.88         104 
 54.9          98 
 54.92         87 
 54.94         88 
 54.96         104 
 54.98         91 
 55            101 
 55.02         103 
 55.04         113 
 55.06         79 
 55.08         123 
 55.1          90 
 55.12         92 
 55.14         95 
 55.16         107 
 55.18         98 
 55.2          102 
 55.22         107 
 55.24         104 
 55.26         108 
 55.28         122 
 55.3          113 
 55.32         103 
 55.34         113 
 55.36         118 
 55.38         111 
 55.4          142 
 55.42         143 
 55.44         132 
 55.46         139 
 55.48         141 
 55.5          142 
 55.52         156 
 55.54         153 
 55.56         157 
 55.58         177 
 55.6          171 
 55.62         170 
 55.64         167 
 55.66         223 
 55.68         215 
 55.7          250 
 55.72         313 
 55.74         384 
 55.76         446 
 55.78         536 
 55.8          692 
 55.82         824 
 55.84         882 
 55.86         922 
 55.88         996 
 55.9          874 
 55.92         859 
 55.94         801 
 55.96         865 
 55.98         865 
 56            842 
 56.02         925 
 56.04         844 
 56.06         924 
 56.08         966 
 56.1          1056 
 56.12         1099 
 56.14         1329 
 56.16         1445 
 56.18         1623 
 56.2          1777 
 56.22         1997 
 56.24         1988 
 56.26         1915 
 56.28         1881 
 56.3          1748 
 56.32         1556 
 56.34         1403 
 56.36         1345 
 56.38         1257 
 56.4          1068 
 56.42         1017 
 56.44         885 
 56.46         713 
 56.48         553 
 56.5          482 
 56.52         422 
 56.54         333 
 56.56         299 
 56.58         255 
 56.6          236 
 56.62         207 
 56.64         193 
 56.66         217 
 56.68         173 
 56.7          185 
 56.72         168 
 56.74         172 
 56.76         145 
 56.78         149 
 56.8          132 
 56.82         158 
 56.84         146 
 56.86         135 
 56.88         152 
 56.9          138 
 56.92         123 
 56.94         138 
 56.96         121 
 56.98         121 
 57            129 
 57.02         147 
 57.04         135 
 57.06         109 
 57.08         119 
 57.1          122 
 57.12         99 
 57.14         89 
 57.16         91 
 57.18         109 
 57.2          118 
 57.22         95 
 57.24         91 
 57.26         101 
 57.28         86 
 57.3          89 
 57.32         97 
 57.34         93 
 57.36         86 
 57.38         79 
 57.4          81 
 57.42         79 
 57.44         85 
 57.46         86 
 57.48         97 
 57.5          97 
 57.52         65 
 57.54         82 
 57.56         92 
 57.58         83 
 57.6          97 
 57.62         112 
 57.64         96 
 57.66         80 
 57.68         92 
 57.7          89 
 57.72         95 
 57.74         90 
 57.76         92 
 57.78         95 
 57.8          99 
 57.82         88 
 57.84         85 
 57.86         97 
 57.88         109 
 57.9          124 
 57.92         109 
 57.94         96 
 57.96         111 
 57.98         110 
 58            122 
 58.02         133 
 58.04         138 
 58.06         132 
 58.08         137 
 58.1          154 
 58.12         177 
 58.14         163 
 58.16         209 
 58.18         211 
 58.2          200 
 58.22         221 
 58.24         238 
 58.26         297 
 58.28         302 
 58.3          341 
 58.32         352 
 58.34         385 
 58.36         506 
 58.38         529 
 58.4          527 
 58.42         594 
 58.44         599 
 58.46         597 
 58.48         587 
 58.5          607 
 58.52         574 
 58.54         583 
 58.56         609 
 58.58         671 
 58.6          755 
 58.62         889 
 58.64         1013 
 58.66         1184 
 58.68         1407 
 58.7          1520 
 58.72         1740 
 58.74         1915 
 58.76         1947 
 58.78         1990 
 58.8          2006 
 58.82         2031 
 58.84         2140 
 58.86         2487 
 58.88         2717 
 58.9          3154 
 58.92         3462 
 58.94         3737 
 58.96         3808 
 58.98         3807 
 59            3797 
 59.02         3844 
 59.04         3416 
 59.06         3330 
 59.08         3162 
 59.1          2927 
 59.12         2763 
 59.14         2481 
 59.16         2246 
 59.18         2110 
 59.2          1806 
 59.22         1500 
 59.24         1261 
 59.26         1058 
 59.28         905 
 59.3          831 
 59.32         669 
 59.34         608 
 59.36         471 
 59.38         447 
 59.4          392 
 59.42         333 
 59.44         292 
 59.46         261 
 59.48         249 
 59.5          209 
 59.52         196 
 59.54         190 
 59.56         176 
 59.58         171 
 59.6          176 
 59.62         169 
 59.64         142 
 59.66         136 
 59.68         149 
 59.7          123 
 59.72         137 
 59.74         119 
 59.76         123 
 59.78         146 
 59.8          139 
 59.82         124 
 59.84         102 
 59.86         120 
 59.88         127 
 59.9          113 
 59.92         111 
 59.94         103 
 59.96         121 
 59.98         106 
 60            119 
 60.02         99 
 60.04         104 
 60.06         110 
 60.08         106 
 60.1          112 
 60.12         135 
 60.14         131 
 60.16         126 
 60.18         123 
 60.2          129 
 60.22         134 
 60.24         131 
 60.26         173 
 60.28         179 
 60.3          189 
 60.32         220 
 60.34         269 
 60.36         301 
 60.38         279 
 60.4          299 
 60.42         326 
 60.44         315 
 60.46         318 
 60.48         313 
 60.5          331 
 60.52         377 
 60.54         447 
 60.56         544 
 60.58         620 
 60.6          702 
 60.62         760 
 60.64         838 
 60.66         854 
 60.68         916 
 60.7          875 
 60.72         821 
 60.74         750 
 60.76         774 
 60.78         713 
 60.8          703 
 60.82         631 
 60.84         604 
 60.86         544 
 60.88         507 
 60.9          395 
 60.92         357 
 60.94         333 
 60.96         263 
 60.98         249 
 61            210 
 61.02         207 
 61.04         194 
 61.06         174 
 61.08         133 
 61.1          142 
 61.12         129 
 61.14         147 
 61.16         134 
 61.18         105 
 61.2          102 
 61.22         112 
 61.24         109 
 61.26         102 
 61.28         104 
 61.3          107 
 61.32         106 
 61.34         129 
 61.36         117 
 61.38         110 
 61.4          118 
 61.42         109 
 61.44         110 
 61.46         118 
 61.48         106 
 61.5          114 
 61.52         121 
 61.54         117 
 61.56         121 
 61.58         120 
 61.6          121 
 61.62         127 
 61.64         109 
 61.66         108 
 61.68         112 
 61.7          116 
 61.72         123 
 61.74         109 
 61.76         117 
 61.78         101 
 61.8          98 
 61.82         101 
 61.84         109 
 61.86         92 
 61.88         110 
 61.9          92 
 61.92         94 
 61.94         112 
 61.96         94 
 61.98         97 
 62            106 
 62.02         96 
 62.04         101 
 62.06         89 
 62.08         102 
 62.1          93 
 62.12         115 
 62.14         109 
 62.16         93 
 62.18         86 
 62.2          100 
 62.22         106 
 62.24         104 
 62.26         100 
 62.28         87 
 62.3          94 
 62.32         95 
 62.34         118 
 62.36         88 
 62.38         83 
 62.4          76 
 62.42         103 
 62.44         104 
 62.46         98 
 62.48         121 
 62.5          115 
 62.52         112 
 62.54         133 
 62.56         98 
 62.58         115 
 62.6          137 
 62.62         149 
 62.64         157 
 62.66         152 
 62.68         156 
 62.7          133 
 62.72         161 
 62.74         179 
 62.76         161 
 62.78         172 
 62.8          170 
 62.82         149 
 62.84         177 
 62.86         152 
 62.88         141 
 62.9          154 
 62.92         151 
 62.94         141 
 62.96         142 
 62.98         162 
 63            168 
 63.02         172 
 63.04         182 
 63.06         189 
 63.08         202 
 63.1          197 
 63.12         239 
 63.14         286 
 63.16         324 
 63.18         412 
 63.2          496 
 63.22         669 
 63.24         749 
 63.26         856 
 63.28         861 
 63.3          871 
 63.32         797 
 63.34         746 
 63.36         664 
 63.38         613 
 63.4          573 
 63.42         583 
 63.44         584 
 63.46         568 
 63.48         505 
 63.5          411 
 63.52         420 
 63.54         310 
 63.56         338 
 63.58         254 
 63.6          214 
 63.62         184 
 63.64         179 
 63.66         178 
 63.68         156 
 63.7          139 
 63.72         131 
 63.74         136 
 63.76         111 
 63.78         122 
 63.8          132 
 63.82         112 
 63.84         105 
 63.86         95 
 63.88         119 
 63.9          106 
 63.92         116 
 63.94         112 
 63.96         99 
 63.98         111 
 64            111 
 64.02         101 
 64.04         103 
 64.06         99 
 64.08         110 
 64.1          95 
 64.12         95 
 64.14         107 
 64.16         88 
 64.18         108 
 64.2          114 
 64.22         116 
 64.24         101 
 64.26         110 
 64.28         112 
 64.3          111 
 64.32         120 
 64.34         119 
 64.36         137 
 64.38         133 
 64.4          121 
 64.42         119 
 64.44         108 
 64.46         123 
 64.48         123 
 64.5          124 
 64.52         126 
 64.54         137 
 64.56         162 
 64.58         175 
 64.6          176 
 64.62         165 
 64.64         176 
 64.66         192 
 64.68         200 
 64.7          221 
 64.72         239 
 64.74         237 
 64.76         255 
 64.78         282 
 64.8          293 
 64.82         317 
 64.84         333 
 64.86         374 
 64.88         373 
 64.9          458 
 64.92         542 
 64.94         506 
 64.96         638 
 64.98         658 
 65            691 
 65.02         713 
 65.04         694 
 65.06         619 
 65.08         647 
 65.1          627 
 65.12         617 
 65.14         673 
 65.16         670 
 65.18         738 
 65.2          782 
 65.22         883 
 65.24         949 
 65.26         1018 
 65.28         1278 
 65.3          1331 
 65.32         1428 
 65.34         1468 
 65.36         1538 
 65.38         1393 
 65.4          1376 
 65.42         1305 
 65.44         1250 
 65.46         1217 
 65.48         1221 
 65.5          1338 
 65.52         1430 
 65.54         1562 
 65.56         1652 
 65.58         1592 
 65.6          1617 
 65.62         1481 
 65.64         1337 
 65.66         1263 
 65.68         1100 
 65.7          1024 
 65.72         938 
 65.74         963 
 65.76         941 
 65.78         915 
 65.8          767 
 65.82         737 
 65.84         596 
 65.86         528 
 65.88         454 
 65.9          354 
 65.92         361 
 65.94         292 
 65.96         276 
 65.98         204 
 66            207 
 66.02         195 
 66.04         205 
 66.06         180 
 66.08         150 
 66.1          157 
 66.12         151 
 66.14         161 
 66.16         185 
 66.18         158 
 66.2          174 
 66.22         178 
 66.24         177 
 66.26         193 
 66.28         206 
 66.3          199 
 66.32         182 
 66.34         208 
 66.36         198 
 66.38         219 
 66.4          162 
 66.42         180 
 66.44         166 
 66.46         178 
 66.48         154 
 66.5          174 
 66.52         160 
 66.54         150 
 66.56         116 
 66.58         149 
 66.6          123 
 66.62         134 
 66.64         140 
 66.66         110 
 66.68         111 
 66.7          109 
 66.72         113 
 66.74         102 
 66.76         97 
 66.78         100 
 66.8          85 
 66.82         94 
 66.84         99 
 66.86         95 
 66.88         101 
 66.9          94 
 66.92         88 
 66.94         88 
 66.96         77 
 66.98         87 
 67            91 
 67.02         95 
 67.04         82 
 67.06         104 
 67.08         101 
 67.1          97 
 67.12         117 
 67.14         94 
 67.16         94 
 67.18         108 
 67.2          108 
 67.22         109 
 67.24         98 
 67.26         116 
 67.28         130 
 67.3          118 
 67.32         100 
 67.34         122 
 67.36         146 
 67.38         138 
 67.4          144 
 67.42         149 
 67.44         136 
 67.46         158 
 67.48         178 
 67.5          165 
 67.52         209 
 67.54         264 
 67.56         300 
 67.58         345 
 67.6          404 
 67.62         428 
 67.64         488 
 67.66         526 
 67.68         552 
 67.7          567 
 67.72         637 
 67.74         689 
 67.76         818 
 67.78         940 
 67.8          1019 
 67.82         1130 
 67.84         1147 
 67.86         1172 
 67.88         1163 
 67.9          1119 
 67.92         1104 
 67.94         1029 
 67.96         943 
 67.98         951 
 68            893 
 68.02         802 
 68.04         881 
 68.06         779 
 68.08         723 
 68.1          635 
 68.12         590 
 68.14         520 
 68.16         451 
 68.18         405 
 68.2          339 
 68.22         344 
 68.24         276 
 68.26         268 
 68.28         247 
 68.3          198 
 68.32         168 
 68.34         161 
 68.36         185 
 68.38         178 
 68.4          173 
 68.42         152 
 68.44         138 
 68.46         153 
 68.48         141 
 68.5          160 
 68.52         143 
 68.54         160 
 68.56         155 
 68.58         156 
 68.6          153 
 68.62         154 
 68.64         175 
 68.66         146 
 68.68         167 
 68.7          158 
 68.72         175 
 68.74         190 
 68.76         186 
 68.78         191 
 68.8          203 
 68.82         240 
 68.84         242 
 68.86         268 
 68.88         298 
 68.9          304 
 68.92         295 
 68.94         294 
 68.96         369 
 68.98         400 
 69            441 
 69.02         447 
 69.04         482 
 69.06         494 
 69.08         501 
 69.1          533 
 69.12         526 
 69.14         560 
 69.16         589 
 69.18         577 
 69.2          577 
 69.22         624 
 69.24         688 
 69.26         737 
 69.28         721 
 69.3          744 
 69.32         783 
 69.34         747 
 69.36         717 
 69.38         707 
 69.4          665 
 69.42         618 
 69.44         640 
 69.46         621 
 69.48         629 
 69.5          630 
 69.52         668 
 69.54         724 
 69.56         753 
 69.58         785 
 69.6          854 
 69.62         845 
 69.64         848 
 69.66         807 
 69.68         780 
 69.7          708 
 69.72         697 
 69.74         584 
 69.76         549 
 69.78         549 
 69.8          487 
 69.82         529 
 69.84         501 
 69.86         462 
 69.88         418 
 69.9          390 
 69.92         312 
 69.94         275 
 69.96         252 
 69.98         213 
 70            206 
 70.02         177 
 70.04         177 
 70.06         147 
 70.08         147 
 70.1          132 
 70.12         117 
 70.14         125 
 70.16         123 
 70.18         115 
 70.2          128 
 70.22         134 
 70.24         139 
 70.26         132 
 70.28         131 
 70.3          135 
 70.32         123 
 70.34         140 
 70.36         134 
 70.38         131 
 70.4          142 
 70.42         105 
 70.44         119 
 70.46         136 
 70.48         142 
 70.5          128 
 70.52         119 
 70.54         153 
 70.56         125 
 70.58         114 
 70.6          114 
 70.62         112 
 70.64         81 
 70.66         119 
 70.68         98 
 70.7          122 
 70.72         92 
 70.74         99 
 70.76         85 
 70.78         94 
 70.8          98 
 70.82         102 
 70.84         96 
 70.86         95 
 70.88         84 
 70.9          86 
 70.92         82 
 70.94         90 
 70.96         92 
 70.98         102 
 71            112 
 71.02         66 
 71.04         85 
 71.06         90 
 71.08         90 
 71.1          97 
 71.12         92 
 71.14         91 
 71.16         106 
 71.18         104 
 71.2          108 
 71.22         106 
 71.24         113 
 71.26         125 
 71.28         136 
 71.3          123 
 71.32         119 
 71.34         157 
 71.36         165 
 71.38         178 
 71.4          203 
 71.42         212 
 71.44         263 
 71.46         257 
 71.48         298 
 71.5          314 
 71.52         382 
 71.54         413 
 71.56         457 
 71.58         408 
 71.6          494 
 71.62         460 
 71.64         455 
 71.66         443 
 71.68         397 
 71.7          393 
 71.72         334 
 71.74         359 
 71.76         373 
 71.78         339 
 71.8          354 
 71.82         314 
 71.84         329 
 71.86         323 
 71.88         281 
 71.9          289 
 71.92         315 
 71.94         311 
 71.96         332 
 71.98         422 
 72            485 
 72.02         540 
 72.04         602 
 72.06         554 
 72.08         584 
 72.1          587 
 72.12         526 
 72.14         457 
 72.16         466 
 72.18         453 
 72.2          426 
 72.22         498 
 72.24         457 
 72.26         426 
 72.28         422 
 72.3          418 
 72.32         374 
 72.34         323 
 72.36         333 
 72.38         305 
 72.4          241 
 72.42         265 
 72.44         207 
 72.46         233 
 72.48         226 
 72.5          232 
 72.52         221 
 72.54         209 
 72.56         229 
 72.58         218 
 72.6          250 
 72.62         245 
 72.64         276 
 72.66         264 
 72.68         273 
 72.7          280 
 72.72         304 
 72.74         344 
 72.76         340 
 72.78         362 
 72.8          404 
 72.82         436 
 72.84         422 
 72.86         454 
 72.88         454 
 72.9          520 
 72.92         472 
 72.94         518 
 72.96         451 
 72.98         434 
 73            399 
 73.02         413 
 73.04         407 
 73.06         408 
 73.08         428 
 73.1          394 
 73.12         376 
 73.14         381 
 73.16         429 
 73.18         381 
 73.2          370 
 73.22         380 
 73.24         424 
 73.26         426 
 73.28         431 
 73.3          491 
 73.32         515 
 73.34         576 
 73.36         598 
 73.38         724 
 73.4          717 
 73.42         740 
 73.44         768 
 73.46         869 
 73.48         827 
 73.5          870 
 73.52         925 
 73.54         869 
 73.56         910 
 73.58         936 
 73.6          887 
 73.62         912 
 73.64         928 
 73.66         932 
 73.68         858 
 73.7          849 
 73.72         851 
 73.74         820 
 73.76         824 
 73.78         820 
 73.8          824 
 73.82         818 
 73.84         811 
 73.86         756 
 73.88         632 
 73.9          641 
 73.92         615 
 73.93999      500 
 73.96         478 
 73.98         433 
 74            447 
 74.02         394 
 74.04         420 
 74.06         394 
 74.08         346 
 74.1          340 
 74.12         295 
 74.14         270 
 74.16         250 
 74.18         212 
 74.2          195 
 74.22         195 
 74.24         185 
 74.26         164 
 74.28         181 
 74.3          173 
 74.32         159 
 74.34         143 
 74.36         149 
 74.38         148 
 74.4          158 
 74.42         154 
 74.43999      144 
 74.46         135 
 74.48         135 
 74.5          131 
 74.52         155 
 74.54         119 
 74.56         124 
 74.58         120 
 74.6          125 
 74.62         118 
 74.64         129 
 74.66         122 
 74.68         108 
 74.7          119 
 74.72         105 
 74.74         100 
 74.76         110 
 74.78         128 
 74.8          97 
 74.82         114 
 74.84         116 
 74.86         103 
 74.88         105 
 74.9          118 
 74.92         99 
 74.93999      98 
 74.96         101 
 74.98         84 
 75            117 
