Probe 12 gelb  Original Data
 3151 
 12            499 
 12.02         448 
 12.04         485 
 12.06         455 
 12.08         509 
 12.1          464 
 12.12         477 
 12.14         442 
 12.16         475 
 12.18         501 
 12.2          500 
 12.22         457 
 12.24         546 
 12.26         459 
 12.28         469 
 12.3          454 
 12.32         503 
 12.34         510 
 12.36         497 
 12.38         474 
 12.4          447 
 12.42         494 
 12.44         468 
 12.46         538 
 12.48         447 
 12.5          539 
 12.52         480 
 12.54         502 
 12.56         471 
 12.58         487 
 12.6          466 
 12.62         462 
 12.64         416 
 12.66         516 
 12.68         502 
 12.7          488 
 12.72         465 
 12.74         479 
 12.76         483 
 12.78         497 
 12.8          515 
 12.82         447 
 12.84         506 
 12.86         452 
 12.88         466 
 12.9          444 
 12.92         482 
 12.94         517 
 12.96         490 
 12.98         503 
 13            468 
 13.02         459 
 13.04         454 
 13.06         489 
 13.08         413 
 13.1          476 
 13.12         457 
 13.14         490 
 13.16         407 
 13.18         496 
 13.2          435 
 13.22         482 
 13.24         445 
 13.26         474 
 13.28         463 
 13.3          489 
 13.32         485 
 13.34         495 
 13.36         493 
 13.38         497 
 13.4          489 
 13.42         466 
 13.44         495 
 13.46         446 
 13.48         522 
 13.5          502 
 13.52         516 
 13.54         576 
 13.56         545 
 13.58         518 
 13.6          475 
 13.62         499 
 13.64         447 
 13.66         467 
 13.68         373 
 13.7          423 
 13.72         367 
 13.74         405 
 13.76         382 
 13.78         374 
 13.8          426 
 13.82         420 
 13.84         370 
 13.86         396 
 13.88         406 
 13.9          404 
 13.92         354 
 13.94         384 
 13.96         388 
 13.98         392 
 14            383 
 14.02         374 
 14.04         368 
 14.06         340 
 14.08         368 
 14.1          356 
 14.12         358 
 14.14         340 
 14.16         367 
 14.18         342 
 14.2          351 
 14.22         366 
 14.24         363 
 14.26         371 
 14.28         363 
 14.3          354 
 14.32         318 
 14.34         347 
 14.36         318 
 14.38         348 
 14.4          344 
 14.42         345 
 14.44         383 
 14.46         364 
 14.48         382 
 14.5          379 
 14.52         390 
 14.54         381 
 14.56         419 
 14.58         408 
 14.6          463 
 14.62         453 
 14.64         501 
 14.66         592 
 14.68         588 
 14.7          630 
 14.72         711 
 14.74         786 
 14.76         839 
 14.78         977 
 14.8          967 
 14.82         1183 
 14.84         1353 
 14.86         1463 
 14.88         1697 
 14.9          2002 
 14.92         2388 
 14.94         2943 
 14.96         3450 
 14.98         4006 
 15            4778 
 15.02         5115 
 15.04         5130 
 15.06         4663 
 15.08         3726 
 15.1          2689 
 15.12         1678 
 15.14         1005 
 15.16         636 
 15.18         468 
 15.2          431 
 15.22         345 
 15.24         321 
 15.26         296 
 15.28         313 
 15.3          274 
 15.32         268 
 15.34         268 
 15.36         281 
 15.38         237 
 15.4          247 
 15.42         258 
 15.44         262 
 15.46         247 
 15.48         211 
 15.5          231 
 15.52         252 
 15.54         248 
 15.56         231 
 15.58         234 
 15.6          233 
 15.62         225 
 15.64         205 
 15.66         217 
 15.68         227 
 15.7          232 
 15.72         209 
 15.74         229 
 15.76         226 
 15.78         227 
 15.8          220 
 15.82         235 
 15.84         217 
 15.86         227 
 15.88         215 
 15.9          213 
 15.92         214 
 15.94         231 
 15.96         224 
 15.98         205 
 16            218 
 16.02         216 
 16.04         231 
 16.06         193 
 16.08         200 
 16.1          216 
 16.12         199 
 16.14         222 
 16.16         206 
 16.18         191 
 16.2          220 
 16.22         202 
 16.24         197 
 16.26         205 
 16.28         185 
 16.3          218 
 16.32         206 
 16.34         214 
 16.36         206 
 16.38         177 
 16.4          188 
 16.42         214 
 16.44         187 
 16.46         185 
 16.48         197 
 16.5          185 
 16.52         170 
 16.54         161 
 16.56         199 
 16.58         191 
 16.6          178 
 16.62         177 
 16.64         187 
 16.66         194 
 16.68         187 
 16.7          174 
 16.72         210 
 16.74         184 
 16.76         208 
 16.78         190 
 16.8          189 
 16.82         185 
 16.84         184 
 16.86         181 
 16.88         202 
 16.9          190 
 16.92         197 
 16.94         199 
 16.96         212 
 16.98         240 
 17            214 
 17.02         219 
 17.04         233 
 17.06         213 
 17.08         247 
 17.1          225 
 17.12         261 
 17.14         270 
 17.16         295 
 17.18         312 
 17.2          334 
 17.22         379 
 17.24         401 
 17.26         450 
 17.28         455 
 17.3          475 
 17.32         472 
 17.34         502 
 17.36         426 
 17.38         332 
 17.4          291 
 17.42         301 
 17.44         248 
 17.46         195 
 17.48         193 
 17.5          186 
 17.52         185 
 17.54         214 
 17.56         185 
 17.58         220 
 17.6          232 
 17.62         183 
 17.64         192 
 17.66         241 
 17.68         226 
 17.7          232 
 17.72         255 
 17.74         245 
 17.76         223 
 17.78         245 
 17.8          229 
 17.82         188 
 17.84         211 
 17.86         183 
 17.88         181 
 17.9          170 
 17.92         189 
 17.94         184 
 17.96         186 
 17.98         214 
 18            213 
 18.02         198 
 18.04         205 
 18.06         213 
 18.08         219 
 18.1          246 
 18.12         239 
 18.14         270 
 18.16         297 
 18.18         333 
 18.2          344 
 18.22         339 
 18.24         348 
 18.26         331 
 18.28         302 
 18.3          276 
 18.32         225 
 18.34         208 
 18.36         184 
 18.38         179 
 18.4          147 
 18.42         146 
 18.44         189 
 18.46         152 
 18.48         152 
 18.5          170 
 18.52         137 
 18.54         153 
 18.56         136 
 18.58         153 
 18.6          156 
 18.62         139 
 18.64         169 
 18.66         132 
 18.68         140 
 18.7          160 
 18.72         127 
 18.74         152 
 18.76         138 
 18.78         140 
 18.8          162 
 18.82         157 
 18.84         128 
 18.86         135 
 18.88         130 
 18.9          138 
 18.92         129 
 18.94         143 
 18.96         147 
 18.98         139 
 19            146 
 19.02         148 
 19.04         142 
 19.06         130 
 19.08         142 
 19.1          167 
 19.12         146 
 19.14         136 
 19.16         126 
 19.18         157 
 19.2          139 
 19.22         137 
 19.24         158 
 19.26         137 
 19.28         154 
 19.3          128 
 19.32         139 
 19.34         142 
 19.36         134 
 19.38         128 
 19.4          127 
 19.42         131 
 19.44         158 
 19.46         140 
 19.48         142 
 19.5          143 
 19.52         140 
 19.54         133 
 19.56         140 
 19.58         152 
 19.6          130 
 19.62         141 
 19.64         140 
 19.66         138 
 19.68         126 
 19.7          157 
 19.72         136 
 19.74         132 
 19.76         107 
 19.78         142 
 19.8          150 
 19.82         163 
 19.84         136 
 19.86         133 
 19.88         151 
 19.9          137 
 19.92         140 
 19.94         133 
 19.96         129 
 19.98         145 
 20            159 
 20.02         126 
 20.04         129 
 20.06         131 
 20.08         136 
 20.1          124 
 20.12         142 
 20.14         152 
 20.16         147 
 20.18         165 
 20.2          145 
 20.22         169 
 20.24         178 
 20.26         184 
 20.28         183 
 20.3          183 
 20.32         164 
 20.34         155 
 20.36         163 
 20.38         181 
 20.4          164 
 20.42         166 
 20.44         181 
 20.46         180 
 20.48         196 
 20.5          184 
 20.52         151 
 20.54         165 
 20.56         155 
 20.58         197 
 20.6          205 
 20.62         220 
 20.64         230 
 20.66         246 
 20.68         244 
 20.7          256 
 20.72         268 
 20.74         319 
 20.76         318 
 20.78         358 
 20.8          373 
 20.82         460 
 20.84         545 
 20.86         608 
 20.88         724 
 20.9          905 
 20.92         999 
 20.94         1132 
 20.96         1387 
 20.98         1627 
 21            1973 
 21.02         2329 
 21.04         2907 
 21.06         3429 
 21.08         4130 
 21.1          5117 
 21.12         6226 
 21.14         7950 
 21.16         9666 
 21.18         12205 
 21.2          14121 
 21.22         16395 
 21.24         18097 
 21.26         18713 
 21.28         17962 
 21.3          16622 
 21.32         14464 
 21.34         13168 
 21.36         11890 
 21.38         12122 
 21.4          12337 
 21.42         12509 
 21.44         12211 
 21.46         11105 
 21.48         9268 
 21.5          7072 
 21.52         5015 
 21.54         3345 
 21.56         2246 
 21.58         1574 
 21.6          1282 
 21.62         1129 
 21.64         1065 
 21.66         1008 
 21.68         1099 
 21.7          1081 
 21.72         1000 
 21.74         939 
 21.76         885 
 21.78         792 
 21.8          588 
 21.82         466 
 21.84         351 
 21.86         293 
 21.88         254 
 21.9          254 
 21.92         183 
 21.94         189 
 21.96         193 
 21.98         169 
 22            175 
 22.02         182 
 22.04         170 
 22.06         165 
 22.08         175 
 22.1          140 
 22.12         209 
 22.14         161 
 22.16         139 
 22.18         130 
 22.2          147 
 22.22         176 
 22.24         150 
 22.26         146 
 22.28         148 
 22.3          127 
 22.32         140 
 22.34         156 
 22.36         152 
 22.38         126 
 22.4          126 
 22.42         133 
 22.44         139 
 22.46         135 
 22.48         132 
 22.5          135 
 22.52         123 
 22.54         137 
 22.56         145 
 22.58         138 
 22.6          126 
 22.62         138 
 22.64         139 
 22.66         133 
 22.68         148 
 22.7          148 
 22.72         142 
 22.74         139 
 22.76         151 
 22.78         135 
 22.8          132 
 22.82         144 
 22.84         131 
 22.86         133 
 22.88         141 
 22.9          139 
 22.92         129 
 22.94         151 
 22.96         131 
 22.98         135 
 23            156 
 23.02         129 
 23.04         147 
 23.06         156 
 23.08         161 
 23.1          152 
 23.12         146 
 23.14         204 
 23.16         181 
 23.18         165 
 23.2          176 
 23.22         202 
 23.24         207 
 23.26         217 
 23.28         235 
 23.3          198 
 23.32         208 
 23.34         201 
 23.36         157 
 23.38         180 
 23.4          167 
 23.42         150 
 23.44         170 
 23.46         152 
 23.48         165 
 23.5          162 
 23.52         154 
 23.54         183 
 23.56         161 
 23.58         174 
 23.6          193 
 23.62         185 
 23.64         170 
 23.66         187 
 23.68         170 
 23.7          157 
 23.72         151 
 23.74         151 
 23.76         136 
 23.78         157 
 23.8          112 
 23.82         119 
 23.84         138 
 23.86         156 
 23.88         167 
 23.9          142 
 23.92         150 
 23.94         191 
 23.96         188 
 23.98         193 
 24            205 
 24.02         253 
 24.04         208 
 24.06         259 
 24.08         200 
 24.1          227 
 24.12         203 
 24.14         167 
 24.16         159 
 24.18         153 
 24.2          113 
 24.22         125 
 24.24         139 
 24.26         133 
 24.28         135 
 24.3          129 
 24.32         129 
 24.34         156 
 24.36         132 
 24.38         140 
 24.4          156 
 24.42         127 
 24.44         140 
 24.46         143 
 24.48         164 
 24.5          142 
 24.52         175 
 24.54         173 
 24.56         216 
 24.58         235 
 24.6          248 
 24.62         320 
 24.64         283 
 24.66         357 
 24.68         424 
 24.7          437 
 24.72         505 
 24.74         613 
 24.76         714 
 24.78         780 
 24.8          902 
 24.82         1187 
 24.84         1301 
 24.86         1654 
 24.88         2020 
 24.9          2526 
 24.92         3040 
 24.94         3868 
 24.96         4861 
 24.98         6433 
 25            8090 
 25.02         10259 
 25.04         13465 
 25.06         16189 
 25.08         19296 
 25.1          20881 
 25.12         20678 
 25.14         19588 
 25.16         16016 
 25.18         12705 
 25.2          8720 
 25.22         5703 
 25.24         3674 
 25.26         2199 
 25.28         1412 
 25.3          965 
 25.32         754 
 25.34         612 
 25.36         466 
 25.38         455 
 25.4          376 
 25.42         386 
 25.44         313 
 25.46         293 
 25.48         280 
 25.5          252 
 25.52         249 
 25.54         219 
 25.56         213 
 25.58         216 
 25.6          202 
 25.62         216 
 25.64         219 
 25.66         222 
 25.68         253 
 25.7          247 
 25.72         255 
 25.74         273 
 25.76         311 
 25.78         284 
 25.8          307 
 25.82         373 
 25.84         404 
 25.86         391 
 25.88         497 
 25.9          486 
 25.92         545 
 25.94         553 
 25.96         580 
 25.98         641 
 26            624 
 26.02         627 
 26.04         585 
 26.06         525 
 26.08         508 
 26.1          466 
 26.12         438 
 26.14         344 
 26.16         306 
 26.18         284 
 26.2          340 
 26.22         369 
 26.24         319 
 26.26         391 
 26.28         448 
 26.3          497 
 26.32         519 
 26.34         531 
 26.36         516 
 26.38         478 
 26.4          447 
 26.42         376 
 26.44         319 
 26.46         262 
 26.48         225 
 26.5          184 
 26.52         171 
 26.54         168 
 26.56         137 
 26.58         118 
 26.6          152 
 26.62         127 
 26.64         126 
 26.66         151 
 26.68         123 
 26.7          123 
 26.72         130 
 26.74         141 
 26.76         128 
 26.78         112 
 26.8          121 
 26.82         123 
 26.84         139 
 26.86         126 
 26.88         167 
 26.9          130 
 26.92         135 
 26.94         151 
 26.96         154 
 26.98         170 
 27            171 
 27.02         177 
 27.04         172 
 27.06         155 
 27.08         126 
 27.1          151 
 27.12         133 
 27.14         125 
 27.16         105 
 27.18         116 
 27.2          121 
 27.22         126 
 27.24         111 
 27.26         105 
 27.28         117 
 27.3          124 
 27.32         112 
 27.34         111 
 27.36         122 
 27.38         129 
 27.4          118 
 27.42         123 
 27.44         117 
 27.46         114 
 27.48         117 
 27.5          129 
 27.52         116 
 27.54         101 
 27.56         123 
 27.58         107 
 27.6          117 
 27.62         100 
 27.64         109 
 27.66         108 
 27.68         97 
 27.7          114 
 27.72         120 
 27.74         108 
 27.76         91 
 27.78         103 
 27.8          103 
 27.82         104 
 27.84         114 
 27.86         94 
 27.88         86 
 27.9          115 
 27.92         109 
 27.94         113 
 27.96         127 
 27.98         134 
 28            132 
 28.02         145 
 28.04         140 
 28.06         135 
 28.08         138 
 28.1          136 
 28.12         167 
 28.14         166 
 28.16         147 
 28.18         157 
 28.2          117 
 28.22         137 
 28.24         128 
 28.26         126 
 28.28         120 
 28.3          116 
 28.32         115 
 28.34         129 
 28.36         120 
 28.38         113 
 28.4          107 
 28.42         132 
 28.44         129 
 28.46         142 
 28.48         133 
 28.5          133 
 28.52         121 
 28.54         120 
 28.56         143 
 28.58         115 
 28.6          116 
 28.62         126 
 28.64         103 
 28.66         120 
 28.68         110 
 28.7          93 
 28.72         114 
 28.74         105 
 28.76         103 
 28.78         88 
 28.8          82 
 28.82         93 
 28.84         115 
 28.86         101 
 28.88         94 
 28.9          89 
 28.92         110 
 28.94         98 
 28.96         101 
 28.98         110 
 29            111 
 29.02         110 
 29.04         126 
 29.06         110 
 29.08         125 
 29.1          124 
 29.12         151 
 29.14         155 
 29.16         137 
 29.18         119 
 29.2          134 
 29.22         150 
 29.24         128 
 29.26         135 
 29.28         118 
 29.3          126 
 29.32         136 
 29.34         107 
 29.36         112 
 29.38         118 
 29.4          110 
 29.42         118 
 29.44         122 
 29.46         121 
 29.48         96 
 29.5          119 
 29.52         99 
 29.54         101 
 29.56         119 
 29.58         102 
 29.6          117 
 29.62         127 
 29.64         126 
 29.66         144 
 29.68         140 
 29.7          144 
 29.72         128 
 29.74         154 
 29.76         168 
 29.78         135 
 29.8          143 
 29.82         140 
 29.84         135 
 29.86         187 
 29.88         182 
 29.9          202 
 29.92         220 
 29.94         243 
 29.96         278 
 29.98         276 
 30            303 
 30.02         322 
 30.04         397 
 30.06         443 
 30.08         475 
 30.1          576 
 30.12         643 
 30.14         812 
 30.16         1009 
 30.18         1240 
 30.2          1650 
 30.22         1977 
 30.24         2527 
 30.26         3551 
 30.28         4534 
 30.3          5825 
 30.32         7620 
 30.34         9254 
 30.36         10717 
 30.38         11525 
 30.4          11485 
 30.42         10708 
 30.44         8931 
 30.46         7515 
 30.48         5407 
 30.5          4136 
 30.52         2788 
 30.54         1887 
 30.56         1159 
 30.58         876 
 30.6          663 
 30.62         524 
 30.64         463 
 30.66         358 
 30.68         321 
 30.7          287 
 30.72         248 
 30.74         252 
 30.76         247 
 30.78         219 
 30.8          224 
 30.82         199 
 30.84         191 
 30.86         172 
 30.88         183 
 30.9          188 
 30.92         198 
 30.94         173 
 30.96         162 
 30.98         201 
 31            210 
 31.02         199 
 31.04         202 
 31.06         199 
 31.08         192 
 31.1          177 
 31.12         191 
 31.14         187 
 31.16         164 
 31.18         185 
 31.2          146 
 31.22         173 
 31.24         150 
 31.26         152 
 31.28         167 
 31.3          169 
 31.32         183 
 31.34         168 
 31.36         185 
 31.38         168 
 31.4          171 
 31.42         181 
 31.44         158 
 31.46         161 
 31.48         162 
 31.5          121 
 31.52         107 
 31.54         113 
 31.56         102 
 31.58         120 
 31.6          112 
 31.62         132 
 31.64         144 
 31.66         118 
 31.68         144 
 31.7          138 
 31.72         133 
 31.74         134 
 31.76         129 
 31.78         133 
 31.8          123 
 31.82         114 
 31.84         99 
 31.86         98 
 31.88         114 
 31.9          104 
 31.92         108 
 31.94         95 
 31.96         109 
 31.98         89 
 32            108 
 32.02         98 
 32.04         96 
 32.06         93 
 32.08         97 
 32.1          103 
 32.12         88 
 32.14         86 
 32.16         89 
 32.18         99 
 32.2          65 
 32.22         118 
 32.24         85 
 32.26         84 
 32.28         100 
 32.3          83 
 32.32         90 
 32.34         95 
 32.36         94 
 32.38         99 
 32.4          84 
 32.42         98 
 32.44         101 
 32.46         97 
 32.48         85 
 32.5          90 
 32.52         78 
 32.54         82 
 32.56         100 
 32.58         106 
 32.6          102 
 32.62         95 
 32.64         106 
 32.66         95 
 32.68         100 
 32.7          98 
 32.72         98 
 32.74         98 
 32.76         110 
 32.78         91 
 32.8          109 
 32.82         113 
 32.84         125 
 32.86         129 
 32.88         136 
 32.9          128 
 32.92         154 
 32.94         178 
 32.96         184 
 32.98         175 
 33            216 
 33.02         221 
 33.04         259 
 33.06         292 
 33.08         320 
 33.1          391 
 33.12         454 
 33.14         603 
 33.16         724 
 33.18         975 
 33.2          1180 
 33.22         1640 
 33.24         2095 
 33.26         2593 
 33.28         3166 
 33.3          3449 
 33.32         3533 
 33.34         3449 
 33.36         3237 
 33.38         2809 
 33.4          2413 
 33.42         2005 
 33.44         1478 
 33.46         1170 
 33.48         801 
 33.5          623 
 33.52         489 
 33.54         419 
 33.56         384 
 33.58         363 
 33.6          337 
 33.62         334 
 33.64         357 
 33.66         451 
 33.68         476 
 33.7          536 
 33.72         638 
 33.74         779 
 33.76         991 
 33.78         1213 
 33.8          1576 
 33.82         2002 
 33.84         2562 
 33.86         3282 
 33.88         4277 
 33.9          5143 
 33.92         6066 
 33.94         6747 
 33.96         7169 
 33.98         7317 
 34            6617 
 34.02         5977 
 34.04         5049 
 34.06         4093 
 34.08         3071 
 34.1          2405 
 34.12         1543 
 34.14         991 
 34.16         702 
 34.18         525 
 34.2          448 
 34.22         302 
 34.24         296 
 34.26         239 
 34.28         212 
 34.3          178 
 34.32         190 
 34.34         152 
 34.36         180 
 34.38         157 
 34.4          145 
 34.42         133 
 34.44         145 
 34.46         132 
 34.48         123 
 34.5          130 
 34.52         104 
 34.54         140 
 34.56         120 
 34.58         111 
 34.6          97 
 34.62         92 
 34.64         108 
 34.66         87 
 34.68         100 
 34.7          91 
 34.72         90 
 34.74         98 
 34.76         95 
 34.78         103 
 34.8          87 
 34.82         120 
 34.84         113 
 34.86         94 
 34.88         99 
 34.9          98 
 34.92         98 
 34.94         82 
 34.96         86 
 34.98         99 
 35            90 
 35.02         92 
 35.04         74 
 35.06         104 
 35.08         81 
 35.1          89 
 35.12         93 
 35.14         95 
 35.16         96 
 35.18         97 
 35.2          96 
 35.22         102 
 35.24         89 
 35.26         95 
 35.28         81 
 35.3          89 
 35.32         63 
 35.34         91 
 35.36         83 
 35.38         91 
 35.4          68 
 35.42         84 
 35.44         100 
 35.46         100 
 35.48         83 
 35.5          101 
 35.52         95 
 35.54         109 
 35.56         118 
 35.58         137 
 35.6          154 
 35.62         133 
 35.64         137 
 35.66         157 
 35.68         195 
 35.7          153 
 35.72         178 
 35.74         194 
 35.76         190 
 35.78         199 
 35.8          151 
 35.82         171 
 35.84         173 
 35.86         138 
 35.88         168 
 35.9          126 
 35.92         149 
 35.94         137 
 35.96         132 
 35.98         123 
 36            128 
 36.02         118 
 36.04         110 
 36.06         110 
 36.08         103 
 36.1          116 
 36.12         106 
 36.14         94 
 36.16         92 
 36.18         87 
 36.2          91 
 36.22         94 
 36.24         103 
 36.26         107 
 36.28         113 
 36.3          96 
 36.32         96 
 36.34         121 
 36.36         100 
 36.38         99 
 36.4          95 
 36.42         76 
 36.44         96 
 36.46         87 
 36.48         78 
 36.5          76 
 36.52         107 
 36.54         76 
 36.56         92 
 36.58         85 
 36.6          72 
 36.62         78 
 36.64         84 
 36.66         105 
 36.68         87 
 36.7          91 
 36.72         110 
 36.74         107 
 36.76         97 
 36.78         117 
 36.8          114 
 36.82         104 
 36.84         121 
 36.86         125 
 36.88         116 
 36.9          139 
 36.92         151 
 36.94         138 
 36.96         164 
 36.98         152 
 37            162 
 37.02         208 
 37.04         200 
 37.06         218 
 37.08         260 
 37.1          249 
 37.12         303 
 37.14         301 
 37.16         330 
 37.18         353 
 37.2          390 
 37.22         387 
 37.24         445 
 37.26         436 
 37.28         515 
 37.3          594 
 37.32         711 
 37.34         920 
 37.36         1094 
 37.38         1443 
 37.4          1914 
 37.42         2477 
 37.44         3190 
 37.46         4055 
 37.48         4860 
 37.5          5484 
 37.52         6077 
 37.54         6363 
 37.56         6545 
 37.58         6437 
 37.6          6299 
 37.62         5893 
 37.64         5052 
 37.66         4478 
 37.68         3643 
 37.7          3013 
 37.72         2384 
 37.74         1859 
 37.76         1377 
 37.78         1016 
 37.8          793 
 37.82         580 
 37.84         465 
 37.86         374 
 37.88         318 
 37.9          276 
 37.92         258 
 37.94         213 
 37.96         177 
 37.98         181 
 38            170 
 38.02         177 
 38.04         152 
 38.06         156 
 38.08         137 
 38.1          142 
 38.12         132 
 38.14         133 
 38.16         119 
 38.18         123 
 38.2          125 
 38.22         118 
 38.24         124 
 38.26         110 
 38.28         109 
 38.3          100 
 38.32         115 
 38.34         99 
 38.36         112 
 38.38         99 
 38.4          87 
 38.42         117 
 38.44         95 
 38.46         95 
 38.48         80 
 38.5          96 
 38.52         80 
 38.54         89 
 38.56         97 
 38.58         95 
 38.6          74 
 38.62         85 
 38.64         78 
 38.66         96 
 38.68         81 
 38.7          79 
 38.72         88 
 38.74         109 
 38.76         92 
 38.78         97 
 38.8          90 
 38.82         85 
 38.84         91 
 38.86         99 
 38.88         97 
 38.9          109 
 38.92         121 
 38.94         114 
 38.96         119 
 38.98         104 
 39            122 
 39.02         138 
 39.04         117 
 39.06         117 
 39.08         123 
 39.1          127 
 39.12         130 
 39.14         88 
 39.16         129 
 39.18         117 
 39.2          132 
 39.22         131 
 39.24         138 
 39.26         121 
 39.28         104 
 39.3          123 
 39.32         100 
 39.34         112 
 39.36         113 
 39.38         102 
 39.4          99 
 39.42         92 
 39.44         124 
 39.46         102 
 39.48         98 
 39.5          102 
 39.52         101 
 39.54         101 
 39.56         96 
 39.58         122 
 39.6          102 
 39.62         96 
 39.64         123 
 39.66         102 
 39.68         92 
 39.7          99 
 39.72         138 
 39.74         132 
 39.76         115 
 39.78         160 
 39.8          163 
 39.82         162 
 39.84         171 
 39.86         183 
 39.88         198 
 39.9          187 
 39.92         203 
 39.94         185 
 39.96         178 
 39.98         188 
 40            189 
 40.02         158 
 40.04         159 
 40.06         135 
 40.08         155 
 40.1          144 
 40.12         137 
 40.14         123 
 40.16         112 
 40.18         102 
 40.2          113 
 40.22         103 
 40.24         96 
 40.26         88 
 40.28         95 
 40.3          95 
 40.32         61 
 40.34         72 
 40.36         67 
 40.38         89 
 40.4          81 
 40.42         93 
 40.44         85 
 40.46         87 
 40.48         96 
 40.5          79 
 40.52         73 
 40.54         84 
 40.56         85 
 40.58         66 
 40.6          93 
 40.62         95 
 40.64         79 
 40.66         100 
 40.68         80 
 40.7          93 
 40.72         77 
 40.74         81 
 40.76         85 
 40.78         88 
 40.8          68 
 40.82         88 
 40.84         73 
 40.86         79 
 40.88         77 
 40.9          89 
 40.92         103 
 40.94         88 
 40.96         73 
 40.98         81 
 41            75 
 41.02         93 
 41.04         94 
 41.06         74 
 41.08         67 
 41.1          78 
 41.12         79 
 41.14         81 
 41.16         82 
 41.18         72 
 41.2          89 
 41.22         77 
 41.24         80 
 41.26         80 
 41.28         70 
 41.3          78 
 41.32         74 
 41.34         87 
 41.36         101 
 41.38         70 
 41.4          84 
 41.42         98 
 41.44         96 
 41.46         78 
 41.48         90 
 41.5          75 
 41.52         94 
 41.54         99 
 41.56         93 
 41.58         87 
 41.6          95 
 41.62         96 
 41.64         98 
 41.66         110 
 41.68         95 
 41.7          90 
 41.72         104 
 41.74         104 
 41.76         83 
 41.78         108 
 41.8          92 
 41.82         82 
 41.84         84 
 41.86         93 
 41.88         88 
 41.9          85 
 41.92         92 
 41.94         77 
 41.96         88 
 41.98         78 
 42            94 
 42.02         85 
 42.04         79 
 42.06         88 
 42.08         95 
 42.1          103 
 42.12         104 
 42.14         114 
 42.16         118 
 42.18         96 
 42.2          108 
 42.22         99 
 42.24         99 
 42.26         93 
 42.28         101 
 42.3          90 
 42.32         82 
 42.34         82 
 42.36         105 
 42.38         89 
 42.4          86 
 42.42         83 
 42.44         73 
 42.46         88 
 42.48         88 
 42.5          92 
 42.52         89 
 42.54         88 
 42.56         69 
 42.58         100 
 42.6          98 
 42.62         79 
 42.64         103 
 42.66         92 
 42.68         96 
 42.7          93 
 42.72         119 
 42.74         102 
 42.76         101 
 42.78         94 
 42.8          103 
 42.82         109 
 42.84         120 
 42.86         83 
 42.88         107 
 42.9          90 
 42.92         108 
 42.94         113 
 42.96         107 
 42.98         97 
 43            80 
 43.02         113 
 43.04         109 
 43.06         135 
 43.08         139 
 43.1          150 
 43.12         163 
 43.14         164 
 43.16         204 
 43.18         255 
 43.2          289 
 43.22         363 
 43.24         415 
 43.26         546 
 43.28         603 
 43.3          702 
 43.32         779 
 43.34         761 
 43.36         769 
 43.38         758 
 43.4          675 
 43.42         630 
 43.44         570 
 43.46         495 
 43.48         463 
 43.5          358 
 43.52         314 
 43.54         278 
 43.56         189 
 43.58         184 
 43.6          154 
 43.62         142 
 43.64         149 
 43.66         162 
 43.68         153 
 43.7          144 
 43.72         158 
 43.74         115 
 43.76         119 
 43.78         115 
 43.8          137 
 43.82         117 
 43.84         88 
 43.86         119 
 43.88         116 
 43.9          88 
 43.92         92 
 43.94         91 
 43.96         106 
 43.98         101 
 44            90 
 44.02         88 
 44.04         80 
 44.06         86 
 44.08         84 
 44.1          92 
 44.12         95 
 44.14         96 
 44.16         100 
 44.18         83 
 44.2          84 
 44.22         91 
 44.24         86 
 44.26         106 
 44.28         99 
 44.3          106 
 44.32         87 
 44.34         95 
 44.36         87 
 44.38         98 
 44.4          85 
 44.42         85 
 44.44         89 
 44.46         90 
 44.48         82 
 44.5          90 
 44.52         83 
 44.54         95 
 44.56         80 
 44.58         92 
 44.6          100 
 44.62         115 
 44.64         73 
 44.66         72 
 44.68         102 
 44.7          79 
 44.72         90 
 44.74         81 
 44.76         81 
 44.78         88 
 44.8          83 
 44.82         85 
 44.84         88 
 44.86         98 
 44.88         100 
 44.9          88 
 44.92         114 
 44.94         94 
 44.96         115 
 44.98         104 
 45            130 
 45.02         133 
 45.04         148 
 45.06         158 
 45.08         174 
 45.1          189 
 45.12         213 
 45.14         234 
 45.16         252 
 45.18         292 
 45.2          343 
 45.22         424 
 45.24         451 
 45.26         610 
 45.28         647 
 45.3          779 
 45.32         869 
 45.34         914 
 45.36         954 
 45.38         998 
 45.4          1094 
 45.42         1039 
 45.44         1106 
 45.46         975 
 45.48         1013 
 45.5          884 
 45.52         872 
 45.54         812 
 45.56         700 
 45.58         689 
 45.6          635 
 45.62         555 
 45.64         571 
 45.66         605 
 45.68         621 
 45.7          664 
 45.72         709 
 45.74         792 
 45.76         788 
 45.78         762 
 45.8          775 
 45.82         745 
 45.84         702 
 45.86         741 
 45.88         693 
 45.9          662 
 45.92         630 
 45.94         576 
 45.96         578 
 45.98         478 
 46            480 
 46.02         482 
 46.04         419 
 46.06         377 
 46.08         395 
 46.1          337 
 46.12         326 
 46.14         279 
 46.16         246 
 46.18         238 
 46.2          248 
 46.22         265 
 46.24         283 
 46.26         317 
 46.28         331 
 46.3          378 
 46.32         352 
 46.34         451 
 46.36         388 
 46.38         441 
 46.4          444 
 46.42         522 
 46.44         593 
 46.46         588 
 46.48         582 
 46.5          592 
 46.52         549 
 46.54         462 
 46.56         483 
 46.58         441 
 46.6          381 
 46.62         326 
 46.64         307 
 46.66         210 
 46.68         214 
 46.7          177 
 46.72         159 
 46.74         133 
 46.76         144 
 46.78         115 
 46.8          121 
 46.82         115 
 46.84         118 
 46.86         95 
 46.88         113 
 46.9          93 
 46.92         88 
 46.94         91 
 46.96         89 
 46.98         86 
 47            80 
 47.02         92 
 47.04         96 
 47.06         83 
 47.08         95 
 47.1          91 
 47.12         83 
 47.14         90 
 47.16         67 
 47.18         87 
 47.2          77 
 47.22         74 
 47.24         76 
 47.26         70 
 47.28         73 
 47.3          81 
 47.32         79 
 47.34         78 
 47.36         77 
 47.38         73 
 47.4          73 
 47.42         89 
 47.44         64 
 47.46         75 
 47.48         68 
 47.5          75 
 47.52         70 
 47.54         71 
 47.56         75 
 47.58         80 
 47.6          91 
 47.62         81 
 47.64         73 
 47.66         72 
 47.68         98 
 47.7          86 
 47.72         95 
 47.74         82 
 47.76         91 
 47.78         92 
 47.8          88 
 47.82         98 
 47.84         89 
 47.86         78 
 47.88         98 
 47.9          81 
 47.92         92 
 47.94         107 
 47.96         109 
 47.98         97 
 48            111 
 48.02         111 
 48.04         108 
 48.06         107 
 48.08         106 
 48.1          141 
 48.12         126 
 48.14         106 
 48.16         133 
 48.18         124 
 48.2          106 
 48.22         107 
 48.24         133 
 48.26         111 
 48.28         110 
 48.3          135 
 48.32         119 
 48.34         100 
 48.36         151 
 48.38         121 
 48.4          139 
 48.42         152 
 48.44         169 
 48.46         157 
 48.48         183 
 48.5          173 
 48.52         224 
 48.54         232 
 48.56         263 
 48.58         304 
 48.6          327 
 48.62         355 
 48.64         431 
 48.66         580 
 48.68         713 
 48.7          885 
 48.72         1164 
 48.74         1476 
 48.76         1889 
 48.78         2309 
 48.8          2771 
 48.82         3236 
 48.84         3492 
 48.86         3706 
 48.88         3767 
 48.9          3485 
 48.92         3238 
 48.94         3034 
 48.96         2916 
 48.98         2701 
 49            2611 
 49.02         2577 
 49.04         2557 
 49.06         2566 
 49.08         2456 
 49.1          2430 
 49.12         2284 
 49.14         2117 
 49.16         1820 
 49.18         1699 
 49.2          1472 
 49.22         1449 
 49.24         1243 
 49.26         1022 
 49.28         898 
 49.3          727 
 49.32         572 
 49.34         433 
 49.36         347 
 49.38         300 
 49.4          244 
 49.42         224 
 49.44         189 
 49.46         184 
 49.48         171 
 49.5          158 
 49.52         187 
 49.54         160 
 49.56         132 
 49.58         140 
 49.6          169 
 49.62         139 
 49.64         140 
 49.66         125 
 49.68         122 
 49.7          122 
 49.72         130 
 49.74         117 
 49.76         115 
 49.78         98 
 49.8          105 
 49.82         104 
 49.84         105 
 49.86         107 
 49.88         98 
 49.9          114 
 49.92         115 
 49.94         112 
 49.96         88 
 49.98         100 
 50            90 
 50.02         114 
 50.04         116 
 50.06         109 
 50.08         106 
 50.1          88 
 50.12         81 
 50.14         102 
 50.16         106 
 50.18         97 
 50.2          98 
 50.22         89 
 50.24         76 
 50.26         83 
 50.28         89 
 50.3          97 
 50.32         79 
 50.34         88 
 50.36         91 
 50.38         67 
 50.4          79 
 50.42         69 
 50.44         95 
 50.46         98 
 50.48         87 
 50.5          93 
 50.52         103 
 50.54         95 
 50.56         88 
 50.58         91 
 50.6          102 
 50.62         102 
 50.64         82 
 50.66         88 
 50.68         97 
 50.7          103 
 50.72         105 
 50.74         117 
 50.76         142 
 50.78         118 
 50.8          134 
 50.82         161 
 50.84         190 
 50.86         222 
 50.88         236 
 50.9          334 
 50.92         381 
 50.94         463 
 50.96         458 
 50.98         568 
 51            576 
 51.02         598 
 51.04         617 
 51.06         596 
 51.08         593 
 51.1          571 
 51.12         624 
 51.14         629 
 51.16         684 
 51.18         673 
 51.2          674 
 51.22         715 
 51.24         712 
 51.26         735 
 51.28         767 
 51.3          764 
 51.32         806 
 51.34         698 
 51.36         737 
 51.38         725 
 51.4          730 
 51.42         772 
 51.44         953 
 51.46         973 
 51.48         1209 
 51.5          1645 
 51.52         2010 
 51.54         2287 
 51.56         2626 
 51.58         2685 
 51.6          2781 
 51.62         2652 
 51.64         2599 
 51.66         2552 
 51.68         2615 
 51.7          2507 
 51.72         2398 
 51.74         2155 
 51.76         1944 
 51.78         1653 
 51.8          1402 
 51.82         1219 
 51.84         1046 
 51.86         939 
 51.88         775 
 51.9          656 
 51.92         553 
 51.94         499 
 51.96         378 
 51.98         318 
 52            253 
 52.02         233 
 52.04         208 
 52.06         169 
 52.08         156 
 52.1          146 
 52.12         148 
 52.14         121 
 52.16         123 
 52.18         129 
 52.2          123 
 52.22         112 
 52.24         117 
 52.26         114 
 52.28         80 
 52.3          89 
 52.32         109 
 52.34         83 
 52.36         107 
 52.38         91 
 52.4          98 
 52.42         96 
 52.44         85 
 52.46         78 
 52.48         95 
 52.5          68 
 52.52         92 
 52.54         84 
 52.56         97 
 52.58         90 
 52.6          85 
 52.62         82 
 52.64         92 
 52.66         79 
 52.68         86 
 52.7          84 
 52.72         71 
 52.74         92 
 52.76         81 
 52.78         85 
 52.8          85 
 52.82         92 
 52.84         92 
 52.86         104 
 52.88         97 
 52.9          77 
 52.92         85 
 52.94         86 
 52.96         86 
 52.98         77 
 53            76 
 53.02         91 
 53.04         86 
 53.06         83 
 53.08         111 
 53.1          93 
 53.12         102 
 53.14         104 
 53.16         99 
 53.18         108 
 53.2          118 
 53.22         102 
 53.24         118 
 53.26         122 
 53.28         125 
 53.3          149 
 53.32         160 
 53.34         206 
 53.36         183 
 53.38         205 
 53.4          225 
 53.42         232 
 53.44         229 
 53.46         237 
 53.48         279 
 53.5          265 
 53.52         282 
 53.54         297 
 53.56         291 
 53.58         298 
 53.6          313 
 53.62         315 
 53.64         278 
 53.66         302 
 53.68         258 
 53.7          273 
 53.72         234 
 53.74         224 
 53.76         180 
 53.78         189 
 53.8          161 
 53.82         162 
 53.84         142 
 53.86         121 
 53.88         116 
 53.9          123 
 53.92         111 
 53.94         106 
 53.96         111 
 53.98         105 
 54            88 
 54.02         104 
 54.04         101 
 54.06         107 
 54.08         100 
 54.1          101 
 54.12         140 
 54.14         141 
 54.16         119 
 54.18         116 
 54.2          107 
 54.22         118 
 54.24         109 
 54.26         123 
 54.28         119 
 54.3          114 
 54.32         117 
 54.34         122 
 54.36         105 
 54.38         106 
 54.4          107 
 54.42         89 
 54.44         96 
 54.46         90 
 54.48         97 
 54.5          83 
 54.52         91 
 54.54         84 
 54.56         91 
 54.58         89 
 54.6          76 
 54.62         89 
 54.64         82 
 54.66         88 
 54.68         94 
 54.7          91 
 54.72         80 
 54.74         76 
 54.76         86 
 54.78         56 
 54.8          79 
 54.82         79 
 54.84         84 
 54.86         71 
 54.88         85 
 54.9          75 
 54.92         71 
 54.94         79 
 54.96         85 
 54.98         56 
 55            93 
 55.02         70 
 55.04         85 
 55.06         71 
 55.08         79 
 55.1          88 
 55.12         72 
 55.14         72 
 55.16         100 
 55.18         74 
 55.2          83 
 55.22         93 
 55.24         88 
 55.26         89 
 55.28         97 
 55.3          90 
 55.32         114 
 55.34         116 
 55.36         88 
 55.38         108 
 55.4          111 
 55.42         109 
 55.44         101 
 55.46         108 
 55.48         124 
 55.5          145 
 55.52         132 
 55.54         137 
 55.56         129 
 55.58         126 
 55.6          154 
 55.62         161 
 55.64         182 
 55.66         216 
 55.68         274 
 55.7          307 
 55.72         414 
 55.74         507 
 55.76         573 
 55.78         761 
 55.8          877 
 55.82         905 
 55.84         968 
 55.86         929 
 55.88         946 
 55.9          846 
 55.92         842 
 55.94         898 
 55.96         902 
 55.98         960 
 56            1002 
 56.02         1052 
 56.04         1096 
 56.06         1158 
 56.08         1274 
 56.1          1440 
 56.12         1542 
 56.14         1707 
 56.16         1895 
 56.18         1973 
 56.2          2126 
 56.22         2017 
 56.24         1990 
 56.26         1807 
 56.28         1692 
 56.3          1475 
 56.32         1335 
 56.34         1283 
 56.36         1080 
 56.38         961 
 56.4          802 
 56.42         723 
 56.44         579 
 56.46         430 
 56.48         391 
 56.5          312 
 56.52         256 
 56.54         212 
 56.56         209 
 56.58         185 
 56.6          176 
 56.62         149 
 56.64         144 
 56.66         136 
 56.68         135 
 56.7          109 
 56.72         144 
 56.74         105 
 56.76         115 
 56.78         122 
 56.8          120 
 56.82         101 
 56.84         114 
 56.86         97 
 56.88         117 
 56.9          88 
 56.92         97 
 56.94         105 
 56.96         110 
 56.98         79 
 57            85 
 57.02         90 
 57.04         97 
 57.06         89 
 57.08         61 
 57.1          78 
 57.12         90 
 57.14         84 
 57.16         75 
 57.18         77 
 57.2          76 
 57.22         83 
 57.24         70 
 57.26         87 
 57.28         75 
 57.3          70 
 57.32         73 
 57.34         79 
 57.36         81 
 57.38         79 
 57.4          80 
 57.42         92 
 57.44         77 
 57.46         57 
 57.48         82 
 57.5          88 
 57.52         77 
 57.54         80 
 57.56         75 
 57.58         91 
 57.6          77 
 57.62         63 
 57.64         79 
 57.66         77 
 57.68         85 
 57.7          80 
 57.72         89 
 57.74         81 
 57.76         78 
 57.78         97 
 57.8          87 
 57.82         90 
 57.84         99 
 57.86         93 
 57.88         118 
 57.9          97 
 57.92         101 
 57.94         121 
 57.96         118 
 57.98         114 
 58            147 
 58.02         151 
 58.04         152 
 58.06         160 
 58.08         143 
 58.1          190 
 58.12         212 
 58.14         223 
 58.16         242 
 58.18         285 
 58.2          274 
 58.22         327 
 58.24         335 
 58.26         378 
 58.28         446 
 58.3          438 
 58.32         511 
 58.34         504 
 58.36         530 
 58.38         540 
 58.4          575 
 58.42         555 
 58.44         528 
 58.46         580 
 58.48         569 
 58.5          582 
 58.52         579 
 58.54         596 
 58.56         731 
 58.58         793 
 58.6          947 
 58.62         1134 
 58.64         1334 
 58.66         1561 
 58.68         1764 
 58.7          1992 
 58.72         1980 
 58.74         2061 
 58.76         2011 
 58.78         2004 
 58.8          2139 
 58.82         2323 
 58.84         2532 
 58.86         2964 
 58.88         3281 
 58.9          3634 
 58.92         3851 
 58.94         4028 
 58.96         3985 
 58.98         3988 
 59            3753 
 59.02         3798 
 59.04         3576 
 59.06         3267 
 59.08         3152 
 59.1          2872 
 59.12         2697 
 59.14         2373 
 59.16         2175 
 59.18         1902 
 59.2          1589 
 59.22         1297 
 59.24         1068 
 59.26         938 
 59.28         709 
 59.3          626 
 59.32         532 
 59.34         442 
 59.36         387 
 59.38         342 
 59.4          306 
 59.42         233 
 59.44         217 
 59.46         228 
 59.48         180 
 59.5          186 
 59.52         173 
 59.54         153 
 59.56         166 
 59.58         160 
 59.6          138 
 59.62         148 
 59.64         139 
 59.66         153 
 59.68         130 
 59.7          148 
 59.72         120 
 59.74         125 
 59.76         102 
 59.78         126 
 59.8          107 
 59.82         123 
 59.84         108 
 59.86         89 
 59.88         123 
 59.9          107 
 59.92         125 
 59.94         113 
 59.96         114 
 59.98         105 
 60            114 
 60.02         107 
 60.04         94 
 60.06         96 
 60.08         81 
 60.1          124 
 60.12         113 
 60.14         105 
 60.16         111 
 60.18         129 
 60.2          138 
 60.22         135 
 60.24         135 
 60.26         176 
 60.28         184 
 60.3          232 
 60.32         263 
 60.34         254 
 60.36         267 
 60.38         299 
 60.4          304 
 60.42         294 
 60.44         308 
 60.46         312 
 60.48         335 
 60.5          399 
 60.52         481 
 60.54         534 
 60.56         630 
 60.58         742 
 60.6          824 
 60.62         841 
 60.64         861 
 60.66         884 
 60.68         947 
 60.7          851 
 60.72         826 
 60.74         840 
 60.76         745 
 60.78         678 
 60.8          592 
 60.82         628 
 60.84         583 
 60.86         514 
 60.88         438 
 60.9          363 
 60.92         336 
 60.94         278 
 60.96         220 
 60.98         218 
 61            171 
 61.02         165 
 61.04         133 
 61.06         128 
 61.08         115 
 61.1          107 
 61.12         112 
 61.14         91 
 61.16         105 
 61.18         116 
 61.2          99 
 61.22         84 
 61.24         104 
 61.26         78 
 61.28         109 
 61.3          83 
 61.32         105 
 61.34         91 
 61.36         94 
 61.38         79 
 61.4          92 
 61.42         94 
 61.44         90 
 61.46         107 
 61.48         99 
 61.5          81 
 61.52         96 
 61.54         79 
 61.56         99 
 61.58         73 
 61.6          89 
 61.62         88 
 61.64         75 
 61.66         96 
 61.68         84 
 61.7          80 
 61.72         83 
 61.74         90 
 61.76         82 
 61.78         93 
 61.8          84 
 61.82         72 
 61.84         91 
 61.86         63 
 61.88         79 
 61.9          78 
 61.92         71 
 61.94         78 
 61.96         65 
 61.98         77 
 62            82 
 62.02         72 
 62.04         87 
 62.06         73 
 62.08         71 
 62.1          62 
 62.12         81 
 62.14         80 
 62.16         65 
 62.18         89 
 62.2          73 
 62.22         79 
 62.24         76 
 62.26         87 
 62.28         81 
 62.3          67 
 62.32         75 
 62.34         68 
 62.36         79 
 62.38         89 
 62.4          71 
 62.42         73 
 62.44         73 
 62.46         64 
 62.48         96 
 62.5          67 
 62.52         75 
 62.54         72 
 62.56         82 
 62.58         69 
 62.6          90 
 62.62         93 
 62.64         92 
 62.66         93 
 62.68         97 
 62.7          107 
 62.72         80 
 62.74         102 
 62.76         96 
 62.78         113 
 62.8          85 
 62.82         102 
 62.84         94 
 62.86         96 
 62.88         108 
 62.9          103 
 62.92         112 
 62.94         104 
 62.96         107 
 62.98         108 
 63            122 
 63.02         143 
 63.04         147 
 63.06         175 
 63.08         198 
 63.1          228 
 63.12         282 
 63.14         328 
 63.16         440 
 63.18         530 
 63.2          628 
 63.22         720 
 63.24         821 
 63.26         911 
 63.28         880 
 63.3          811 
 63.32         732 
 63.34         651 
 63.36         596 
 63.38         633 
 63.4          603 
 63.42         568 
 63.44         542 
 63.46         504 
 63.48         396 
 63.5          371 
 63.52         312 
 63.54         231 
 63.56         203 
 63.58         155 
 63.6          154 
 63.62         156 
 63.64         130 
 63.66         112 
 63.68         112 
 63.7          118 
 63.72         97 
 63.74         106 
 63.76         115 
 63.78         108 
 63.8          83 
 63.82         92 
 63.84         88 
 63.86         95 
 63.88         89 
 63.9          87 
 63.92         76 
 63.94         89 
 63.96         81 
 63.98         71 
 64            87 
 64.02         87 
 64.04         72 
 64.06         93 
 64.08         90 
 64.1          92 
 64.12         89 
 64.14         97 
 64.16         99 
 64.18         96 
 64.2          116 
 64.22         93 
 64.24         90 
 64.26         93 
 64.28         110 
 64.3          128 
 64.32         110 
 64.34         116 
 64.36         128 
 64.38         98 
 64.4          118 
 64.42         121 
 64.44         115 
 64.46         112 
 64.48         133 
 64.5          151 
 64.52         155 
 64.54         154 
 64.56         156 
 64.58         140 
 64.6          159 
 64.62         185 
 64.64         188 
 64.66         204 
 64.68         254 
 64.7          268 
 64.72         254 
 64.74         324 
 64.76         327 
 64.78         342 
 64.8          368 
 64.82         383 
 64.84         401 
 64.86         478 
 64.88         488 
 64.9          518 
 64.92         569 
 64.94         611 
 64.96         607 
 64.98         633 
 65            645 
 65.02         642 
 65.04         626 
 65.06         606 
 65.08         640 
 65.1          644 
 65.12         649 
 65.14         707 
 65.16         749 
 65.18         789 
 65.2          918 
 65.22         1018 
 65.24         1196 
 65.26         1312 
 65.28         1395 
 65.3          1500 
 65.32         1478 
 65.34         1498 
 65.36         1403 
 65.38         1349 
 65.4          1226 
 65.42         1241 
 65.44         1243 
 65.46         1290 
 65.48         1413 
 65.5          1533 
 65.52         1626 
 65.54         1666 
 65.56         1612 
 65.58         1613 
 65.6          1432 
 65.62         1301 
 65.64         1195 
 65.66         1055 
 65.68         1023 
 65.7          1009 
 65.72         916 
 65.74         921 
 65.76         872 
 65.78         776 
 65.8          687 
 65.82         563 
 65.84         501 
 65.86         450 
 65.88         348 
 65.9          309 
 65.92         273 
 65.94         222 
 65.96         193 
 65.98         213 
 66            197 
 66.02         144 
 66.04         130 
 66.06         149 
 66.08         113 
 66.1          116 
 66.12         122 
 66.14         135 
 66.16         123 
 66.18         130 
 66.2          128 
 66.22         112 
 66.24         128 
 66.26         121 
 66.28         115 
 66.3          119 
 66.32         122 
 66.34         100 
 66.36         114 
 66.38         108 
 66.4          109 
 66.42         86 
 66.44         100 
 66.46         106 
 66.48         114 
 66.5          87 
 66.52         81 
 66.54         87 
 66.56         90 
 66.58         86 
 66.6          70 
 66.62         88 
 66.64         114 
 66.66         92 
 66.68         80 
 66.7          89 
 66.72         73 
 66.74         98 
 66.76         74 
 66.78         91 
 66.8          73 
 66.82         99 
 66.84         98 
 66.86         78 
 66.88         89 
 66.9          81 
 66.92         87 
 66.94         89 
 66.96         116 
 66.98         83 
 67            93 
 67.02         101 
 67.04         88 
 67.06         96 
 67.08         104 
 67.1          117 
 67.12         95 
 67.14         96 
 67.16         98 
 67.18         113 
 67.2          103 
 67.22         113 
 67.24         110 
 67.26         134 
 67.28         126 
 67.3          130 
 67.32         113 
 67.34         147 
 67.36         127 
 67.38         139 
 67.4          141 
 67.42         155 
 67.44         169 
 67.46         190 
 67.48         256 
 67.5          242 
 67.52         263 
 67.54         346 
 67.56         348 
 67.58         439 
 67.6          451 
 67.62         529 
 67.64         525 
 67.66         574 
 67.68         646 
 67.7          642 
 67.72         742 
 67.74         840 
 67.76         959 
 67.78         1113 
 67.8          1134 
 67.82         1197 
 67.84         1266 
 67.86         1228 
 67.88         1161 
 67.9          1102 
 67.92         1087 
 67.94         981 
 67.96         957 
 67.98         897 
 68            892 
 68.02         838 
 68.04         776 
 68.06         722 
 68.08         645 
 68.1          557 
 68.12         505 
 68.14         426 
 68.16         439 
 68.18         350 
 68.2          258 
 68.22         231 
 68.24         223 
 68.26         207 
 68.28         175 
 68.3          165 
 68.32         143 
 68.34         148 
 68.36         153 
 68.38         131 
 68.4          108 
 68.42         127 
 68.44         113 
 68.46         124 
 68.48         128 
 68.5          111 
 68.52         109 
 68.54         122 
 68.56         145 
 68.58         131 
 68.6          129 
 68.62         138 
 68.64         144 
 68.66         123 
 68.68         175 
 68.7          183 
 68.72         190 
 68.74         189 
 68.76         199 
 68.78         199 
 68.8          207 
 68.82         240 
 68.84         264 
 68.86         332 
 68.88         299 
 68.9          382 
 68.92         378 
 68.94         421 
 68.96         466 
 68.98         515 
 69            496 
 69.02         600 
 69.04         612 
 69.06         610 
 69.08         601 
 69.1          599 
 69.12         656 
 69.14         698 
 69.16         679 
 69.18         732 
 69.2          685 
 69.22         744 
 69.24         721 
 69.26         743 
 69.28         733 
 69.3          696 
 69.32         717 
 69.34         642 
 69.36         693 
 69.38         648 
 69.4          592 
 69.42         575 
 69.44         618 
 69.46         631 
 69.48         612 
 69.5          668 
 69.52         680 
 69.54         744 
 69.56         779 
 69.58         835 
 69.6          859 
 69.62         831 
 69.64         787 
 69.66         802 
 69.68         728 
 69.7          615 
 69.72         593 
 69.74         562 
 69.76         510 
 69.78         538 
 69.8          485 
 69.82         474 
 69.84         406 
 69.86         385 
 69.88         340 
 69.9          278 
 69.92         267 
 69.94         190 
 69.96         143 
 69.98         158 
 70            136 
 70.02         137 
 70.04         137 
 70.06         105 
 70.08         126 
 70.1          99 
 70.12         96 
 70.14         124 
 70.16         120 
 70.18         81 
 70.2          100 
 70.22         102 
 70.24         93 
 70.26         101 
 70.28         82 
 70.3          83 
 70.32         78 
 70.34         88 
 70.36         101 
 70.38         91 
 70.4          104 
 70.42         82 
 70.44         84 
 70.46         99 
 70.48         81 
 70.5          97 
 70.52         87 
 70.54         99 
 70.56         77 
 70.58         65 
 70.6          73 
 70.62         89 
 70.64         78 
 70.66         68 
 70.68         73 
 70.7          71 
 70.72         68 
 70.74         67 
 70.76         84 
 70.78         63 
 70.8          76 
 70.82         69 
 70.84         70 
 70.86         73 
 70.88         69 
 70.9          80 
 70.92         90 
 70.94         87 
 70.96         56 
 70.98         76 
 71            101 
 71.02         87 
 71.04         97 
 71.06         82 
 71.08         89 
 71.1          84 
 71.12         80 
 71.14         103 
 71.16         85 
 71.18         108 
 71.2          122 
 71.22         113 
 71.24         115 
 71.26         96 
 71.28         141 
 71.3          161 
 71.32         159 
 71.34         168 
 71.36         198 
 71.38         247 
 71.4          252 
 71.42         282 
 71.44         292 
 71.46         338 
 71.48         352 
 71.5          400 
 71.52         458 
 71.54         460 
 71.56         482 
 71.58         486 
 71.6          469 
 71.62         443 
 71.64         406 
 71.66         419 
 71.68         401 
 71.7          379 
 71.72         346 
 71.74         325 
 71.76         308 
 71.78         321 
 71.8          300 
 71.82         291 
 71.84         279 
 71.86         271 
 71.88         266 
 71.9          295 
 71.92         332 
 71.94         376 
 71.96         440 
 71.98         451 
 72            568 
 72.02         593 
 72.04         567 
 72.06         601 
 72.08         591 
 72.1          548 
 72.12         520 
 72.14         511 
 72.16         478 
 72.18         491 
 72.2          485 
 72.22         480 
 72.24         461 
 72.26         444 
 72.28         370 
 72.3          408 
 72.32         360 
 72.34         308 
 72.36         284 
 72.38         269 
 72.4          255 
 72.42         237 
 72.44         235 
 72.46         254 
 72.48         240 
 72.5          235 
 72.52         257 
 72.54         241 
 72.56         286 
 72.58         312 
 72.6          307 
 72.62         281 
 72.64         341 
 72.66         321 
 72.68         359 
 72.7          390 
 72.72         389 
 72.74         364 
 72.76         394 
 72.78         424 
 72.8          427 
 72.82         447 
 72.84         470 
 72.86         457 
 72.88         445 
 72.9          428 
 72.92         417 
 72.94         427 
 72.96         374 
 72.98         386 
 73            352 
 73.02         375 
 73.04         377 
 73.06         384 
 73.08         354 
 73.1          339 
 73.12         374 
 73.14         367 
 73.16         387 
 73.18         381 
 73.2          401 
 73.22         452 
 73.24         471 
 73.26         499 
 73.28         573 
 73.3          625 
 73.32         688 
 73.34         703 
 73.36         789 
 73.38         809 
 73.4          851 
 73.42         862 
 73.44         859 
 73.46         841 
 73.48         865 
 73.5          848 
 73.52         892 
 73.54         922 
 73.56         950 
 73.58         892 
 73.6          911 
 73.62         958 
 73.64         895 
 73.66         899 
 73.68         901 
 73.7          805 
 73.72         787 
 73.74         817 
 73.76         841 
 73.78         801 
 73.8          747 
 73.82         707 
 73.84         694 
 73.86         667 
 73.88         613 
 73.9          551 
 73.92         500 
 73.93999      461 
 73.96         409 
 73.98         457 
 74            401 
 74.02         440 
 74.04         380 
 74.06         358 
 74.08         270 
 74.1          296 
 74.12         280 
 74.14         217 
 74.16         207 
 74.18         174 
 74.2          175 
 74.22         160 
 74.24         148 
 74.26         133 
 74.28         143 
 74.3          126 
 74.32         126 
 74.34         113 
 74.36         119 
 74.38         113 
 74.4          88 
 74.42         100 
 74.43999      97 
 74.46         76 
 74.48         107 
 74.5          96 
 74.52         94 
 74.54         76 
 74.56         85 
 74.58         106 
 74.6          82 
 74.62         91 
 74.64         81 
 74.66         77 
 74.68         95 
 74.7          83 
 74.72         63 
 74.74         63 
 74.76         87 
 74.78         71 
 74.8          89 
 74.82         76 
 74.84         80 
 74.86         87 
 74.88         80 
 74.9          66 
 74.92         80 
 74.93999      75 
 74.96         109 
 74.98         90 
 75            84 
