Probe 13 weiﬂ  Original Data
 3151 
 12            378 
 12.02         348 
 12.04         419 
 12.06         365 
 12.08         376 
 12.1          348 
 12.12         401 
 12.14         364 
 12.16         354 
 12.18         387 
 12.2          372 
 12.22         371 
 12.24         382 
 12.26         415 
 12.28         390 
 12.3          382 
 12.32         351 
 12.34         393 
 12.36         379 
 12.38         411 
 12.4          363 
 12.42         405 
 12.44         390 
 12.46         393 
 12.48         386 
 12.5          423 
 12.52         395 
 12.54         369 
 12.56         403 
 12.58         376 
 12.6          408 
 12.62         369 
 12.64         382 
 12.66         373 
 12.68         388 
 12.7          393 
 12.72         393 
 12.74         354 
 12.76         408 
 12.78         359 
 12.8          423 
 12.82         415 
 12.84         407 
 12.86         395 
 12.88         393 
 12.9          411 
 12.92         380 
 12.94         386 
 12.96         377 
 12.98         414 
 13            383 
 13.02         394 
 13.04         390 
 13.06         422 
 13.08         409 
 13.1          389 
 13.12         394 
 13.14         436 
 13.16         394 
 13.18         366 
 13.2          413 
 13.22         426 
 13.24         469 
 13.26         398 
 13.28         444 
 13.3          379 
 13.32         462 
 13.34         441 
 13.36         526 
 13.38         452 
 13.4          519 
 13.42         523 
 13.44         568 
 13.46         580 
 13.48         578 
 13.5          645 
 13.52         557 
 13.54         605 
 13.56         563 
 13.58         559 
 13.6          510 
 13.62         552 
 13.64         460 
 13.66         432 
 13.68         432 
 13.7          359 
 13.72         350 
 13.74         368 
 13.76         348 
 13.78         363 
 13.8          328 
 13.82         332 
 13.84         317 
 13.86         342 
 13.88         369 
 13.9          291 
 13.92         303 
 13.94         324 
 13.96         329 
 13.98         317 
 14            326 
 14.02         305 
 14.04         327 
 14.06         305 
 14.08         334 
 14.1          339 
 14.12         319 
 14.14         330 
 14.16         287 
 14.18         318 
 14.2          310 
 14.22         350 
 14.24         306 
 14.26         331 
 14.28         324 
 14.3          315 
 14.32         294 
 14.34         297 
 14.36         288 
 14.38         331 
 14.4          323 
 14.42         332 
 14.44         346 
 14.46         397 
 14.48         377 
 14.5          349 
 14.52         392 
 14.54         395 
 14.56         425 
 14.58         451 
 14.6          506 
 14.62         515 
 14.64         556 
 14.66         599 
 14.68         679 
 14.7          715 
 14.72         833 
 14.74         881 
 14.76         983 
 14.78         1143 
 14.8          1254 
 14.82         1426 
 14.84         1604 
 14.86         1970 
 14.88         2086 
 14.9          2609 
 14.92         2737 
 14.94         3227 
 14.96         3336 
 14.98         3649 
 15            3631 
 15.02         3386 
 15.04         3227 
 15.06         2744 
 15.08         2388 
 15.1          1941 
 15.12         1439 
 15.14         1071 
 15.16         739 
 15.18         525 
 15.2          421 
 15.22         348 
 15.24         311 
 15.26         261 
 15.28         280 
 15.3          258 
 15.32         253 
 15.34         254 
 15.36         252 
 15.38         262 
 15.4          273 
 15.42         231 
 15.44         234 
 15.46         205 
 15.48         235 
 15.5          229 
 15.52         228 
 15.54         224 
 15.56         223 
 15.58         235 
 15.6          215 
 15.62         229 
 15.64         237 
 15.66         218 
 15.68         241 
 15.7          208 
 15.72         236 
 15.74         210 
 15.76         198 
 15.78         199 
 15.8          215 
 15.82         223 
 15.84         216 
 15.86         210 
 15.88         221 
 15.9          219 
 15.92         230 
 15.94         222 
 15.96         217 
 15.98         217 
 16            177 
 16.02         226 
 16.04         240 
 16.06         213 
 16.08         223 
 16.1          191 
 16.12         187 
 16.14         212 
 16.16         218 
 16.18         210 
 16.2          185 
 16.22         205 
 16.24         183 
 16.26         210 
 16.28         190 
 16.3          199 
 16.32         204 
 16.34         197 
 16.36         188 
 16.38         202 
 16.4          189 
 16.42         175 
 16.44         191 
 16.46         211 
 16.48         180 
 16.5          195 
 16.52         203 
 16.54         205 
 16.56         195 
 16.58         194 
 16.6          198 
 16.62         210 
 16.64         175 
 16.66         192 
 16.68         203 
 16.7          194 
 16.72         164 
 16.74         175 
 16.76         179 
 16.78         195 
 16.8          207 
 16.82         211 
 16.84         207 
 16.86         200 
 16.88         208 
 16.9          218 
 16.92         224 
 16.94         245 
 16.96         258 
 16.98         266 
 17            277 
 17.02         313 
 17.04         340 
 17.06         360 
 17.08         358 
 17.1          414 
 17.12         415 
 17.14         494 
 17.16         575 
 17.18         637 
 17.2          672 
 17.22         838 
 17.24         834 
 17.26         929 
 17.28         984 
 17.3          890 
 17.32         924 
 17.34         848 
 17.36         809 
 17.38         657 
 17.4          576 
 17.42         468 
 17.44         361 
 17.46         358 
 17.48         295 
 17.5          279 
 17.52         268 
 17.54         245 
 17.56         275 
 17.58         245 
 17.6          242 
 17.62         274 
 17.64         271 
 17.66         281 
 17.68         286 
 17.7          294 
 17.72         301 
 17.74         294 
 17.76         273 
 17.78         262 
 17.8          273 
 17.82         235 
 17.84         265 
 17.86         246 
 17.88         220 
 17.9          235 
 17.92         237 
 17.94         262 
 17.96         247 
 17.98         259 
 18            272 
 18.02         331 
 18.04         336 
 18.06         349 
 18.08         411 
 18.1          398 
 18.12         506 
 18.14         500 
 18.16         553 
 18.18         580 
 18.2          590 
 18.22         588 
 18.24         634 
 18.26         590 
 18.28         451 
 18.3          448 
 18.32         384 
 18.34         288 
 18.36         246 
 18.38         213 
 18.4          233 
 18.42         180 
 18.44         196 
 18.46         164 
 18.48         182 
 18.5          165 
 18.52         158 
 18.54         153 
 18.56         155 
 18.58         121 
 18.6          163 
 18.62         167 
 18.64         146 
 18.66         148 
 18.68         129 
 18.7          138 
 18.72         141 
 18.74         150 
 18.76         147 
 18.78         157 
 18.8          154 
 18.82         128 
 18.84         145 
 18.86         169 
 18.88         145 
 18.9          140 
 18.92         138 
 18.94         161 
 18.96         137 
 18.98         133 
 19            120 
 19.02         140 
 19.04         142 
 19.06         126 
 19.08         121 
 19.1          159 
 19.12         116 
 19.14         146 
 19.16         155 
 19.18         152 
 19.2          143 
 19.22         160 
 19.24         137 
 19.26         141 
 19.28         134 
 19.3          152 
 19.32         140 
 19.34         165 
 19.36         125 
 19.38         158 
 19.4          139 
 19.42         120 
 19.44         130 
 19.46         126 
 19.48         158 
 19.5          123 
 19.52         132 
 19.54         151 
 19.56         143 
 19.58         153 
 19.6          150 
 19.62         139 
 19.64         155 
 19.66         150 
 19.68         132 
 19.7          124 
 19.72         158 
 19.74         144 
 19.76         154 
 19.78         141 
 19.8          137 
 19.82         140 
 19.84         139 
 19.86         130 
 19.88         116 
 19.9          142 
 19.92         136 
 19.94         129 
 19.96         139 
 19.98         131 
 20            161 
 20.02         158 
 20.04         152 
 20.06         136 
 20.08         148 
 20.1          132 
 20.12         178 
 20.14         124 
 20.16         153 
 20.18         138 
 20.2          150 
 20.22         172 
 20.24         158 
 20.26         157 
 20.28         173 
 20.3          139 
 20.32         180 
 20.34         168 
 20.36         187 
 20.38         162 
 20.4          184 
 20.42         150 
 20.44         164 
 20.46         174 
 20.48         162 
 20.5          152 
 20.52         215 
 20.54         185 
 20.56         183 
 20.58         193 
 20.6          204 
 20.62         229 
 20.64         226 
 20.66         232 
 20.68         274 
 20.7          265 
 20.72         373 
 20.74         358 
 20.76         416 
 20.78         515 
 20.8          588 
 20.82         672 
 20.84         794 
 20.86         877 
 20.88         1010 
 20.9          1155 
 20.92         1441 
 20.94         1676 
 20.96         2115 
 20.98         2375 
 21            3147 
 21.02         3414 
 21.04         4394 
 21.06         5098 
 21.08         6452 
 21.1          7485 
 21.12         8989 
 21.14         10384 
 21.16         11687 
 21.18         12931 
 21.2          13545 
 21.22         14033 
 21.24         13981 
 21.26         13508 
 21.28         12737 
 21.3          12107 
 21.32         11184 
 21.34         10716 
 21.36         10353 
 21.38         9957 
 21.4          9510 
 21.42         9071 
 21.44         8503 
 21.46         7514 
 21.48         6343 
 21.5          5450 
 21.52         3919 
 21.54         3238 
 21.56         2210 
 21.58         1760 
 21.6          1266 
 21.62         1088 
 21.64         865 
 21.66         760 
 21.68         673 
 21.7          664 
 21.72         606 
 21.74         545 
 21.76         491 
 21.78         417 
 21.8          400 
 21.82         270 
 21.84         308 
 21.86         235 
 21.88         212 
 21.9          208 
 21.92         193 
 21.94         179 
 21.96         179 
 21.98         192 
 22            165 
 22.02         184 
 22.04         181 
 22.06         152 
 22.08         175 
 22.1          166 
 22.12         158 
 22.14         200 
 22.16         174 
 22.18         143 
 22.2          148 
 22.22         146 
 22.24         139 
 22.26         139 
 22.28         126 
 22.3          144 
 22.32         123 
 22.34         139 
 22.36         133 
 22.38         132 
 22.4          126 
 22.42         130 
 22.44         120 
 22.46         132 
 22.48         141 
 22.5          120 
 22.52         135 
 22.54         129 
 22.56         132 
 22.58         144 
 22.6          149 
 22.62         141 
 22.64         151 
 22.66         156 
 22.68         160 
 22.7          141 
 22.72         125 
 22.74         132 
 22.76         154 
 22.78         151 
 22.8          159 
 22.82         147 
 22.84         135 
 22.86         150 
 22.88         167 
 22.9          129 
 22.92         164 
 22.94         167 
 22.96         162 
 22.98         161 
 23            145 
 23.02         172 
 23.04         191 
 23.06         189 
 23.08         198 
 23.1          221 
 23.12         243 
 23.14         251 
 23.16         257 
 23.18         278 
 23.2          309 
 23.22         325 
 23.24         310 
 23.26         335 
 23.28         349 
 23.3          326 
 23.32         297 
 23.34         277 
 23.36         281 
 23.38         260 
 23.4          239 
 23.42         244 
 23.44         242 
 23.46         232 
 23.48         250 
 23.5          252 
 23.52         251 
 23.54         299 
 23.56         300 
 23.58         309 
 23.6          329 
 23.62         354 
 23.64         309 
 23.66         254 
 23.68         241 
 23.7          227 
 23.72         213 
 23.74         215 
 23.76         173 
 23.78         185 
 23.8          179 
 23.82         180 
 23.84         183 
 23.86         181 
 23.88         212 
 23.9          240 
 23.92         284 
 23.94         274 
 23.96         320 
 23.98         367 
 24            368 
 24.02         423 
 24.04         439 
 24.06         427 
 24.08         402 
 24.1          353 
 24.12         348 
 24.14         315 
 24.16         255 
 24.18         229 
 24.2          188 
 24.22         187 
 24.24         148 
 24.26         143 
 24.28         156 
 24.3          150 
 24.32         122 
 24.34         124 
 24.36         131 
 24.38         155 
 24.4          148 
 24.42         142 
 24.44         175 
 24.46         166 
 24.48         176 
 24.5          185 
 24.52         191 
 24.54         235 
 24.56         255 
 24.58         285 
 24.6          336 
 24.62         340 
 24.64         388 
 24.66         409 
 24.68         519 
 24.7          601 
 24.72         708 
 24.74         835 
 24.76         950 
 24.78         1146 
 24.8          1328 
 24.82         1564 
 24.84         1962 
 24.86         2344 
 24.88         3148 
 24.9          3543 
 24.92         4703 
 24.94         5513 
 24.96         7133 
 24.98         8575 
 25            10531 
 25.02         12222 
 25.04         13725 
 25.06         14964 
 25.08         15231 
 25.1          14942 
 25.12         14091 
 25.14         11939 
 25.16         10212 
 25.18         7561 
 25.2          6233 
 25.22         4042 
 25.24         2989 
 25.26         1837 
 25.28         1336 
 25.3          933 
 25.32         663 
 25.34         507 
 25.36         455 
 25.38         411 
 25.4          319 
 25.42         323 
 25.44         309 
 25.46         267 
 25.48         265 
 25.5          227 
 25.52         188 
 25.54         251 
 25.56         250 
 25.58         210 
 25.6          221 
 25.62         227 
 25.64         270 
 25.66         263 
 25.68         267 
 25.7          277 
 25.72         294 
 25.74         339 
 25.76         406 
 25.78         368 
 25.8          378 
 25.82         486 
 25.84         491 
 25.86         501 
 25.88         507 
 25.9          539 
 25.92         542 
 25.94         535 
 25.96         521 
 25.98         539 
 26            504 
 26.02         435 
 26.04         435 
 26.06         400 
 26.08         391 
 26.1          364 
 26.12         384 
 26.14         366 
 26.16         352 
 26.18         317 
 26.2          357 
 26.22         360 
 26.24         327 
 26.26         302 
 26.28         301 
 26.3          278 
 26.32         256 
 26.34         240 
 26.36         228 
 26.38         190 
 26.4          177 
 26.42         153 
 26.44         155 
 26.46         128 
 26.48         151 
 26.5          124 
 26.52         124 
 26.54         147 
 26.56         150 
 26.58         148 
 26.6          155 
 26.62         144 
 26.64         132 
 26.66         157 
 26.68         137 
 26.7          158 
 26.72         116 
 26.74         122 
 26.76         133 
 26.78         139 
 26.8          169 
 26.82         168 
 26.84         171 
 26.86         210 
 26.88         216 
 26.9          239 
 26.92         254 
 26.94         247 
 26.96         289 
 26.98         272 
 27            249 
 27.02         220 
 27.04         280 
 27.06         214 
 27.08         217 
 27.1          190 
 27.12         141 
 27.14         142 
 27.16         142 
 27.18         121 
 27.2          134 
 27.22         131 
 27.24         110 
 27.26         130 
 27.28         140 
 27.3          141 
 27.32         151 
 27.34         136 
 27.36         120 
 27.38         151 
 27.4          112 
 27.42         124 
 27.44         127 
 27.46         141 
 27.48         156 
 27.5          115 
 27.52         119 
 27.54         105 
 27.56         114 
 27.58         114 
 27.6          131 
 27.62         98 
 27.64         101 
 27.66         102 
 27.68         101 
 27.7          106 
 27.72         92 
 27.74         87 
 27.76         109 
 27.78         109 
 27.8          95 
 27.82         106 
 27.84         107 
 27.86         108 
 27.88         90 
 27.9          103 
 27.92         100 
 27.94         104 
 27.96         91 
 27.98         131 
 28            109 
 28.02         120 
 28.04         118 
 28.06         128 
 28.08         130 
 28.1          126 
 28.12         122 
 28.14         118 
 28.16         123 
 28.18         104 
 28.2          118 
 28.22         108 
 28.24         129 
 28.26         127 
 28.28         134 
 28.3          129 
 28.32         127 
 28.34         151 
 28.36         144 
 28.38         158 
 28.4          160 
 28.42         184 
 28.44         193 
 28.46         204 
 28.48         214 
 28.5          208 
 28.52         217 
 28.54         198 
 28.56         166 
 28.58         167 
 28.6          146 
 28.62         150 
 28.64         130 
 28.66         128 
 28.68         120 
 28.7          117 
 28.72         120 
 28.74         105 
 28.76         85 
 28.78         105 
 28.8          103 
 28.82         112 
 28.84         100 
 28.86         98 
 28.88         104 
 28.9          114 
 28.92         136 
 28.94         134 
 28.96         122 
 28.98         132 
 29            153 
 29.02         189 
 29.04         162 
 29.06         158 
 29.08         200 
 29.1          214 
 29.12         233 
 29.14         213 
 29.16         250 
 29.18         223 
 29.2          255 
 29.22         252 
 29.24         235 
 29.26         247 
 29.28         204 
 29.3          203 
 29.32         201 
 29.34         147 
 29.36         176 
 29.38         169 
 29.4          131 
 29.42         145 
 29.44         108 
 29.46         125 
 29.48         132 
 29.5          118 
 29.52         116 
 29.54         108 
 29.56         118 
 29.58         111 
 29.6          132 
 29.62         141 
 29.64         154 
 29.66         160 
 29.68         147 
 29.7          156 
 29.72         176 
 29.74         215 
 29.76         200 
 29.78         183 
 29.8          204 
 29.82         231 
 29.84         203 
 29.86         243 
 29.88         262 
 29.9          255 
 29.92         282 
 29.94         292 
 29.96         320 
 29.98         359 
 30            429 
 30.02         480 
 30.04         519 
 30.06         663 
 30.08         728 
 30.1          962 
 30.12         1071 
 30.14         1406 
 30.16         1642 
 30.18         2200 
 30.2          2664 
 30.22         3433 
 30.24         4209 
 30.26         5343 
 30.28         6287 
 30.3          7509 
 30.32         8282 
 30.34         8853 
 30.36         9150 
 30.38         8784 
 30.4          8252 
 30.42         7377 
 30.44         6155 
 30.46         5167 
 30.48         3893 
 30.5          3143 
 30.52         2253 
 30.54         1742 
 30.56         1225 
 30.58         994 
 30.6          816 
 30.62         650 
 30.64         531 
 30.66         496 
 30.68         392 
 30.7          365 
 30.72         287 
 30.74         244 
 30.76         269 
 30.78         270 
 30.8          227 
 30.82         235 
 30.84         208 
 30.86         217 
 30.88         205 
 30.9          188 
 30.92         187 
 30.94         171 
 30.96         191 
 30.98         156 
 31            159 
 31.02         187 
 31.04         159 
 31.06         175 
 31.08         139 
 31.1          168 
 31.12         178 
 31.14         197 
 31.16         169 
 31.18         235 
 31.2          216 
 31.22         273 
 31.24         302 
 31.26         334 
 31.28         325 
 31.3          333 
 31.32         354 
 31.34         411 
 31.36         342 
 31.38         375 
 31.4          373 
 31.42         311 
 31.44         296 
 31.46         277 
 31.48         249 
 31.5          249 
 31.52         219 
 31.54         206 
 31.56         206 
 31.58         243 
 31.6          230 
 31.62         248 
 31.64         222 
 31.66         235 
 31.68         234 
 31.7          221 
 31.72         295 
 31.74         279 
 31.76         244 
 31.78         256 
 31.8          223 
 31.82         185 
 31.84         178 
 31.86         141 
 31.88         142 
 31.9          145 
 31.92         115 
 31.94         97 
 31.96         90 
 31.98         99 
 32            93 
 32.02         96 
 32.04         88 
 32.06         103 
 32.08         86 
 32.1          103 
 32.12         87 
 32.14         74 
 32.16         92 
 32.18         79 
 32.2          91 
 32.22         103 
 32.24         89 
 32.26         85 
 32.28         85 
 32.3          96 
 32.32         84 
 32.34         87 
 32.36         93 
 32.38         81 
 32.4          106 
 32.42         84 
 32.44         89 
 32.46         89 
 32.48         82 
 32.5          83 
 32.52         90 
 32.54         96 
 32.56         76 
 32.58         89 
 32.6          93 
 32.62         83 
 32.64         82 
 32.66         101 
 32.68         102 
 32.7          102 
 32.72         113 
 32.74         98 
 32.76         100 
 32.78         110 
 32.8          132 
 32.82         130 
 32.84         123 
 32.86         141 
 32.88         139 
 32.9          160 
 32.92         163 
 32.94         168 
 32.96         175 
 32.98         217 
 33            241 
 33.02         239 
 33.04         308 
 33.06         362 
 33.08         471 
 33.1          519 
 33.12         619 
 33.14         836 
 33.16         985 
 33.18         1347 
 33.2          1482 
 33.22         1852 
 33.24         2155 
 33.26         2430 
 33.28         2471 
 33.3          2716 
 33.32         2629 
 33.34         2619 
 33.36         2307 
 33.38         2147 
 33.4          1726 
 33.42         1508 
 33.44         1228 
 33.46         968 
 33.48         719 
 33.5          615 
 33.52         479 
 33.54         468 
 33.56         407 
 33.58         421 
 33.6          445 
 33.62         462 
 33.64         521 
 33.66         651 
 33.68         762 
 33.7          902 
 33.72         1090 
 33.74         1416 
 33.76         1813 
 33.78         2256 
 33.8          2650 
 33.82         3413 
 33.84         3956 
 33.86         4623 
 33.88         5253 
 33.9          5731 
 33.92         5700 
 33.94         5676 
 33.96         5231 
 33.98         4842 
 34            4157 
 34.02         3597 
 34.04         2697 
 34.06         2243 
 34.08         1626 
 34.1          1198 
 34.12         849 
 34.14         654 
 34.16         501 
 34.18         426 
 34.2          301 
 34.22         282 
 34.24         248 
 34.26         226 
 34.28         178 
 34.3          201 
 34.32         169 
 34.34         147 
 34.36         142 
 34.38         153 
 34.4          132 
 34.42         106 
 34.44         139 
 34.46         116 
 34.48         125 
 34.5          107 
 34.52         101 
 34.54         109 
 34.56         100 
 34.58         93 
 34.6          102 
 34.62         110 
 34.64         114 
 34.66         109 
 34.68         91 
 34.7          90 
 34.72         93 
 34.74         101 
 34.76         96 
 34.78         123 
 34.8          99 
 34.82         120 
 34.84         108 
 34.86         119 
 34.88         104 
 34.9          95 
 34.92         114 
 34.94         98 
 34.96         107 
 34.98         110 
 35            91 
 35.02         100 
 35.04         117 
 35.06         126 
 35.08         97 
 35.1          108 
 35.12         100 
 35.14         128 
 35.16         102 
 35.18         98 
 35.2          110 
 35.22         86 
 35.24         84 
 35.26         111 
 35.28         95 
 35.3          99 
 35.32         80 
 35.34         119 
 35.36         102 
 35.38         90 
 35.4          106 
 35.42         112 
 35.44         110 
 35.46         114 
 35.48         112 
 35.5          105 
 35.52         105 
 35.54         104 
 35.56         105 
 35.58         127 
 35.6          134 
 35.62         120 
 35.64         128 
 35.66         129 
 35.68         129 
 35.7          122 
 35.72         137 
 35.74         137 
 35.76         144 
 35.78         115 
 35.8          136 
 35.82         139 
 35.84         140 
 35.86         118 
 35.88         127 
 35.9          103 
 35.92         102 
 35.94         112 
 35.96         141 
 35.98         126 
 36            119 
 36.02         96 
 36.04         88 
 36.06         102 
 36.08         89 
 36.1          94 
 36.12         78 
 36.14         101 
 36.16         95 
 36.18         67 
 36.2          75 
 36.22         81 
 36.24         95 
 36.26         82 
 36.28         82 
 36.3          85 
 36.32         83 
 36.34         75 
 36.36         84 
 36.38         102 
 36.4          72 
 36.42         78 
 36.44         68 
 36.46         76 
 36.48         101 
 36.5          100 
 36.52         93 
 36.54         100 
 36.56         93 
 36.58         82 
 36.6          96 
 36.62         102 
 36.64         107 
 36.66         112 
 36.68         101 
 36.7          105 
 36.72         106 
 36.74         151 
 36.76         157 
 36.78         160 
 36.8          171 
 36.82         176 
 36.84         198 
 36.86         195 
 36.88         252 
 36.9          229 
 36.92         237 
 36.94         276 
 36.96         297 
 36.98         303 
 37            263 
 37.02         339 
 37.04         305 
 37.06         355 
 37.08         342 
 37.1          360 
 37.12         353 
 37.14         344 
 37.16         369 
 37.18         411 
 37.2          406 
 37.22         433 
 37.24         526 
 37.26         621 
 37.28         698 
 37.3          847 
 37.32         1039 
 37.34         1366 
 37.36         1651 
 37.38         2034 
 37.4          2573 
 37.42         3049 
 37.44         3564 
 37.46         4021 
 37.48         4541 
 37.5          4769 
 37.52         5173 
 37.54         5040 
 37.56         5065 
 37.58         4867 
 37.6          4615 
 37.62         4281 
 37.64         3774 
 37.66         3456 
 37.68         2812 
 37.7          2405 
 37.72         1954 
 37.74         1570 
 37.76         1315 
 37.78         904 
 37.8          749 
 37.82         561 
 37.84         456 
 37.86         347 
 37.88         313 
 37.9          233 
 37.92         249 
 37.94         191 
 37.96         166 
 37.98         172 
 38            162 
 38.02         137 
 38.04         137 
 38.06         147 
 38.08         145 
 38.1          149 
 38.12         142 
 38.14         131 
 38.16         118 
 38.18         115 
 38.2          112 
 38.22         122 
 38.24         135 
 38.26         114 
 38.28         115 
 38.3          116 
 38.32         102 
 38.34         114 
 38.36         106 
 38.38         109 
 38.4          99 
 38.42         103 
 38.44         96 
 38.46         91 
 38.48         92 
 38.5          74 
 38.52         82 
 38.54         107 
 38.56         97 
 38.58         76 
 38.6          89 
 38.62         101 
 38.64         88 
 38.66         83 
 38.68         86 
 38.7          82 
 38.72         73 
 38.74         75 
 38.76         98 
 38.78         94 
 38.8          99 
 38.82         81 
 38.84         94 
 38.86         86 
 38.88         85 
 38.9          101 
 38.92         116 
 38.94         113 
 38.96         102 
 38.98         100 
 39            134 
 39.02         118 
 39.04         139 
 39.06         158 
 39.08         163 
 39.1          177 
 39.12         192 
 39.14         209 
 39.16         205 
 39.18         197 
 39.2          225 
 39.22         233 
 39.24         179 
 39.26         226 
 39.28         195 
 39.3          190 
 39.32         136 
 39.34         156 
 39.36         145 
 39.38         152 
 39.4          134 
 39.42         131 
 39.44         129 
 39.46         125 
 39.48         114 
 39.5          99 
 39.52         93 
 39.54         96 
 39.56         115 
 39.58         123 
 39.6          109 
 39.62         118 
 39.64         118 
 39.66         122 
 39.68         138 
 39.7          121 
 39.72         139 
 39.74         148 
 39.76         156 
 39.78         133 
 39.8          151 
 39.82         158 
 39.84         161 
 39.86         173 
 39.88         194 
 39.9          188 
 39.92         194 
 39.94         189 
 39.96         216 
 39.98         188 
 40            194 
 40.02         171 
 40.04         204 
 40.06         184 
 40.08         202 
 40.1          192 
 40.12         167 
 40.14         163 
 40.16         147 
 40.18         130 
 40.2          138 
 40.22         113 
 40.24         110 
 40.26         105 
 40.28         106 
 40.3          99 
 40.32         83 
 40.34         82 
 40.36         115 
 40.38         92 
 40.4          90 
 40.42         76 
 40.44         97 
 40.46         90 
 40.48         82 
 40.5          96 
 40.52         76 
 40.54         81 
 40.56         78 
 40.58         77 
 40.6          88 
 40.62         90 
 40.64         86 
 40.66         87 
 40.68         84 
 40.7          104 
 40.72         90 
 40.74         112 
 40.76         117 
 40.78         94 
 40.8          106 
 40.82         111 
 40.84         117 
 40.86         122 
 40.88         126 
 40.9          108 
 40.92         107 
 40.94         107 
 40.96         102 
 40.98         85 
 41            89 
 41.02         86 
 41.04         103 
 41.06         73 
 41.08         96 
 41.1          87 
 41.12         83 
 41.14         78 
 41.16         91 
 41.18         91 
 41.2          85 
 41.22         79 
 41.24         75 
 41.26         83 
 41.28         91 
 41.3          90 
 41.32         99 
 41.34         92 
 41.36         105 
 41.38         96 
 41.4          78 
 41.42         86 
 41.44         108 
 41.46         98 
 41.48         93 
 41.5          80 
 41.52         107 
 41.54         99 
 41.56         82 
 41.58         93 
 41.6          104 
 41.62         113 
 41.64         102 
 41.66         95 
 41.68         117 
 41.7          114 
 41.72         97 
 41.74         105 
 41.76         112 
 41.78         105 
 41.8          96 
 41.82         96 
 41.84         102 
 41.86         121 
 41.88         92 
 41.9          103 
 41.92         98 
 41.94         86 
 41.96         93 
 41.98         86 
 42            85 
 42.02         87 
 42.04         116 
 42.06         95 
 42.08         113 
 42.1          93 
 42.12         112 
 42.14         95 
 42.16         98 
 42.18         87 
 42.2          100 
 42.22         87 
 42.24         98 
 42.26         76 
 42.28         96 
 42.3          92 
 42.32         79 
 42.34         89 
 42.36         77 
 42.38         84 
 42.4          96 
 42.42         95 
 42.44         71 
 42.46         82 
 42.48         95 
 42.5          97 
 42.52         94 
 42.54         118 
 42.56         90 
 42.58         104 
 42.6          115 
 42.62         128 
 42.64         115 
 42.66         122 
 42.68         150 
 42.7          128 
 42.72         133 
 42.74         116 
 42.76         136 
 42.78         149 
 42.8          146 
 42.82         126 
 42.84         140 
 42.86         126 
 42.88         130 
 42.9          137 
 42.92         103 
 42.94         115 
 42.96         134 
 42.98         120 
 43            138 
 43.02         152 
 43.04         162 
 43.06         181 
 43.08         231 
 43.1          231 
 43.12         268 
 43.14         307 
 43.16         342 
 43.18         443 
 43.2          519 
 43.22         545 
 43.24         601 
 43.26         619 
 43.28         708 
 43.3          721 
 43.32         643 
 43.34         663 
 43.36         606 
 43.38         524 
 43.4          493 
 43.42         419 
 43.44         399 
 43.46         321 
 43.48         282 
 43.5          253 
 43.52         208 
 43.54         200 
 43.56         166 
 43.58         153 
 43.6          166 
 43.62         144 
 43.64         142 
 43.66         150 
 43.68         152 
 43.7          133 
 43.72         143 
 43.74         130 
 43.76         137 
 43.78         130 
 43.8          135 
 43.82         115 
 43.84         122 
 43.86         130 
 43.88         114 
 43.9          123 
 43.92         148 
 43.94         129 
 43.96         107 
 43.98         109 
 44            90 
 44.02         113 
 44.04         111 
 44.06         94 
 44.08         86 
 44.1          103 
 44.12         102 
 44.14         107 
 44.16         118 
 44.18         109 
 44.2          82 
 44.22         85 
 44.24         102 
 44.26         90 
 44.28         102 
 44.3          99 
 44.32         109 
 44.34         81 
 44.36         90 
 44.38         76 
 44.4          102 
 44.42         75 
 44.44         89 
 44.46         76 
 44.48         83 
 44.5          93 
 44.52         105 
 44.54         78 
 44.56         65 
 44.58         99 
 44.6          103 
 44.62         73 
 44.64         75 
 44.66         94 
 44.68         70 
 44.7          83 
 44.72         86 
 44.74         104 
 44.76         96 
 44.78         78 
 44.8          78 
 44.82         103 
 44.84         91 
 44.86         119 
 44.88         99 
 44.9          94 
 44.92         117 
 44.94         118 
 44.96         133 
 44.98         133 
 45            144 
 45.02         180 
 45.04         178 
 45.06         254 
 45.08         278 
 45.1          268 
 45.12         315 
 45.14         371 
 45.16         420 
 45.18         511 
 45.2          580 
 45.22         614 
 45.24         717 
 45.26         752 
 45.28         810 
 45.3          802 
 45.32         863 
 45.34         841 
 45.36         866 
 45.38         828 
 45.4          820 
 45.42         767 
 45.44         694 
 45.46         726 
 45.48         682 
 45.5          671 
 45.52         621 
 45.54         582 
 45.56         615 
 45.58         527 
 45.6          515 
 45.62         513 
 45.64         535 
 45.66         552 
 45.68         620 
 45.7          596 
 45.72         670 
 45.74         655 
 45.76         742 
 45.78         713 
 45.8          721 
 45.82         700 
 45.84         712 
 45.86         674 
 45.88         647 
 45.9          615 
 45.92         577 
 45.94         531 
 45.96         495 
 45.98         466 
 46            448 
 46.02         369 
 46.04         388 
 46.06         354 
 46.08         338 
 46.1          307 
 46.12         287 
 46.14         261 
 46.16         320 
 46.18         285 
 46.2          276 
 46.22         295 
 46.24         323 
 46.26         327 
 46.28         352 
 46.3          334 
 46.32         411 
 46.34         445 
 46.36         437 
 46.38         436 
 46.4          503 
 46.42         495 
 46.44         486 
 46.46         517 
 46.48         508 
 46.5          475 
 46.52         466 
 46.54         404 
 46.56         392 
 46.58         394 
 46.6          335 
 46.62         324 
 46.64         270 
 46.66         256 
 46.68         237 
 46.7          250 
 46.72         217 
 46.74         169 
 46.76         169 
 46.78         154 
 46.8          144 
 46.82         137 
 46.84         155 
 46.86         146 
 46.88         107 
 46.9          134 
 46.92         124 
 46.94         123 
 46.96         111 
 46.98         101 
 47            112 
 47.02         90 
 47.04         106 
 47.06         93 
 47.08         92 
 47.1          102 
 47.12         85 
 47.14         81 
 47.16         102 
 47.18         108 
 47.2          96 
 47.22         87 
 47.24         88 
 47.26         84 
 47.28         103 
 47.3          82 
 47.32         83 
 47.34         69 
 47.36         90 
 47.38         94 
 47.4          80 
 47.42         71 
 47.44         82 
 47.46         83 
 47.48         75 
 47.5          80 
 47.52         68 
 47.54         85 
 47.56         75 
 47.58         88 
 47.6          100 
 47.62         102 
 47.64         92 
 47.66         74 
 47.68         108 
 47.7          112 
 47.72         97 
 47.74         118 
 47.76         105 
 47.78         138 
 47.8          102 
 47.82         117 
 47.84         117 
 47.86         97 
 47.88         114 
 47.9          103 
 47.92         106 
 47.94         93 
 47.96         105 
 47.98         101 
 48            89 
 48.02         112 
 48.04         96 
 48.06         114 
 48.08         103 
 48.1          107 
 48.12         105 
 48.14         86 
 48.16         128 
 48.18         113 
 48.2          101 
 48.22         108 
 48.24         118 
 48.26         124 
 48.28         128 
 48.3          121 
 48.32         144 
 48.34         110 
 48.36         175 
 48.38         164 
 48.4          167 
 48.42         176 
 48.44         180 
 48.46         213 
 48.48         249 
 48.5          275 
 48.52         270 
 48.54         319 
 48.56         384 
 48.58         479 
 48.6          565 
 48.62         678 
 48.64         849 
 48.66         1083 
 48.68         1341 
 48.7          1595 
 48.72         1873 
 48.74         2158 
 48.76         2473 
 48.78         2696 
 48.8          3010 
 48.82         2987 
 48.84         2890 
 48.86         2938 
 48.88         2778 
 48.9          2428 
 48.92         2329 
 48.94         2383 
 48.96         2117 
 48.98         1994 
 49            2076 
 49.02         1948 
 49.04         1881 
 49.06         1851 
 49.08         1766 
 49.1          1735 
 49.12         1703 
 49.14         1605 
 49.16         1491 
 49.18         1408 
 49.2          1264 
 49.22         1140 
 49.24         947 
 49.26         868 
 49.28         731 
 49.3          603 
 49.32         491 
 49.34         475 
 49.36         378 
 49.38         343 
 49.4          262 
 49.42         225 
 49.44         241 
 49.46         177 
 49.48         185 
 49.5          187 
 49.52         141 
 49.54         140 
 49.56         137 
 49.58         133 
 49.6          120 
 49.62         111 
 49.64         119 
 49.66         102 
 49.68         104 
 49.7          109 
 49.72         118 
 49.74         119 
 49.76         110 
 49.78         108 
 49.8          108 
 49.82         114 
 49.84         110 
 49.86         135 
 49.88         120 
 49.9          116 
 49.92         142 
 49.94         123 
 49.96         130 
 49.98         137 
 50            135 
 50.02         126 
 50.04         127 
 50.06         122 
 50.08         118 
 50.1          110 
 50.12         90 
 50.14         88 
 50.16         91 
 50.18         79 
 50.2          79 
 50.22         84 
 50.24         92 
 50.26         82 
 50.28         88 
 50.3          88 
 50.32         88 
 50.34         79 
 50.36         95 
 50.38         78 
 50.4          105 
 50.42         83 
 50.44         91 
 50.46         74 
 50.48         89 
 50.5          71 
 50.52         79 
 50.54         101 
 50.56         103 
 50.58         87 
 50.6          107 
 50.62         98 
 50.64         116 
 50.66         101 
 50.68         108 
 50.7          117 
 50.72         132 
 50.74         143 
 50.76         152 
 50.78         174 
 50.8          178 
 50.82         238 
 50.84         285 
 50.86         310 
 50.88         332 
 50.9          404 
 50.92         432 
 50.94         539 
 50.96         555 
 50.98         558 
 51            608 
 51.02         656 
 51.04         632 
 51.06         675 
 51.08         726 
 51.1          642 
 51.12         716 
 51.14         690 
 51.16         718 
 51.18         663 
 51.2          713 
 51.22         658 
 51.24         678 
 51.26         688 
 51.28         624 
 51.3          634 
 51.32         629 
 51.34         597 
 51.36         657 
 51.38         758 
 51.4          804 
 51.42         960 
 51.44         1093 
 51.46         1281 
 51.48         1577 
 51.5          1774 
 51.52         1902 
 51.54         2080 
 51.56         2259 
 51.58         2233 
 51.6          2179 
 51.62         2150 
 51.64         2121 
 51.66         2124 
 51.68         2006 
 51.7          1870 
 51.72         1719 
 51.74         1686 
 51.76         1427 
 51.78         1255 
 51.8          1084 
 51.82         984 
 51.84         902 
 51.86         778 
 51.88         682 
 51.9          559 
 51.92         486 
 51.94         416 
 51.96         349 
 51.98         287 
 52            281 
 52.02         199 
 52.04         176 
 52.06         171 
 52.08         148 
 52.1          139 
 52.12         118 
 52.14         128 
 52.16         106 
 52.18         114 
 52.2          123 
 52.22         111 
 52.24         104 
 52.26         100 
 52.28         73 
 52.3          104 
 52.32         94 
 52.34         71 
 52.36         83 
 52.38         87 
 52.4          72 
 52.42         111 
 52.44         78 
 52.46         89 
 52.48         104 
 52.5          90 
 52.52         88 
 52.54         90 
 52.56         81 
 52.58         89 
 52.6          107 
 52.62         99 
 52.64         98 
 52.66         94 
 52.68         87 
 52.7          109 
 52.72         99 
 52.74         95 
 52.76         108 
 52.78         113 
 52.8          123 
 52.82         103 
 52.84         104 
 52.86         86 
 52.88         92 
 52.9          101 
 52.92         121 
 52.94         123 
 52.96         107 
 52.98         102 
 53            80 
 53.02         111 
 53.04         101 
 53.06         127 
 53.08         122 
 53.1          113 
 53.12         122 
 53.14         112 
 53.16         128 
 53.18         153 
 53.2          166 
 53.22         152 
 53.24         175 
 53.26         169 
 53.28         187 
 53.3          205 
 53.32         230 
 53.34         226 
 53.36         240 
 53.38         294 
 53.4          273 
 53.42         228 
 53.44         264 
 53.46         254 
 53.48         228 
 53.5          250 
 53.52         252 
 53.54         247 
 53.56         242 
 53.58         231 
 53.6          212 
 53.62         223 
 53.64         220 
 53.66         215 
 53.68         205 
 53.7          182 
 53.72         174 
 53.74         182 
 53.76         154 
 53.78         183 
 53.8          181 
 53.82         150 
 53.84         164 
 53.86         145 
 53.88         135 
 53.9          157 
 53.92         162 
 53.94         147 
 53.96         137 
 53.98         158 
 54            135 
 54.02         137 
 54.04         134 
 54.06         122 
 54.08         116 
 54.1          134 
 54.12         122 
 54.14         124 
 54.16         114 
 54.18         124 
 54.2          115 
 54.22         115 
 54.24         108 
 54.26         104 
 54.28         106 
 54.3          114 
 54.32         104 
 54.34         123 
 54.36         106 
 54.38         111 
 54.4          95 
 54.42         105 
 54.44         106 
 54.46         95 
 54.48         101 
 54.5          112 
 54.52         122 
 54.54         100 
 54.56         124 
 54.58         117 
 54.6          119 
 54.62         93 
 54.64         123 
 54.66         111 
 54.68         92 
 54.7          80 
 54.72         92 
 54.74         84 
 54.76         106 
 54.78         101 
 54.8          88 
 54.82         81 
 54.84         96 
 54.86         80 
 54.88         106 
 54.9          91 
 54.92         96 
 54.94         80 
 54.96         98 
 54.98         89 
 55            92 
 55.02         83 
 55.04         94 
 55.06         100 
 55.08         93 
 55.1          78 
 55.12         100 
 55.14         121 
 55.16         109 
 55.18         99 
 55.2          99 
 55.22         99 
 55.24         109 
 55.26         104 
 55.28         105 
 55.3          95 
 55.32         118 
 55.34         113 
 55.36         119 
 55.38         134 
 55.4          115 
 55.42         144 
 55.44         130 
 55.46         142 
 55.48         152 
 55.5          140 
 55.52         129 
 55.54         171 
 55.56         152 
 55.58         197 
 55.6          232 
 55.62         239 
 55.64         281 
 55.66         332 
 55.68         389 
 55.7          422 
 55.72         548 
 55.74         606 
 55.76         717 
 55.78         703 
 55.8          823 
 55.82         849 
 55.84         932 
 55.86         887 
 55.88         858 
 55.9          855 
 55.92         990 
 55.94         1046 
 55.96         1023 
 55.98         1165 
 56            1256 
 56.02         1291 
 56.04         1428 
 56.06         1522 
 56.08         1570 
 56.1          1670 
 56.12         1666 
 56.14         1676 
 56.16         1756 
 56.18         1659 
 56.2          1537 
 56.22         1542 
 56.24         1348 
 56.26         1304 
 56.28         1168 
 56.3          978 
 56.32         906 
 56.34         831 
 56.36         686 
 56.38         618 
 56.4          475 
 56.42         419 
 56.44         323 
 56.46         312 
 56.48         287 
 56.5          234 
 56.52         215 
 56.54         211 
 56.56         175 
 56.58         189 
 56.6          178 
 56.62         163 
 56.64         135 
 56.66         149 
 56.68         138 
 56.7          139 
 56.72         140 
 56.74         156 
 56.76         140 
 56.78         104 
 56.8          139 
 56.82         114 
 56.84         124 
 56.86         108 
 56.88         112 
 56.9          117 
 56.92         105 
 56.94         92 
 56.96         102 
 56.98         111 
 57            101 
 57.02         127 
 57.04         95 
 57.06         99 
 57.08         94 
 57.1          93 
 57.12         68 
 57.14         87 
 57.16         81 
 57.18         71 
 57.2          86 
 57.22         74 
 57.24         91 
 57.26         89 
 57.28         72 
 57.3          89 
 57.32         77 
 57.34         81 
 57.36         74 
 57.38         69 
 57.4          83 
 57.42         75 
 57.44         74 
 57.46         72 
 57.48         92 
 57.5          91 
 57.52         68 
 57.54         80 
 57.56         70 
 57.58         78 
 57.6          87 
 57.62         80 
 57.64         69 
 57.66         91 
 57.68         60 
 57.7          99 
 57.72         87 
 57.74         79 
 57.76         65 
 57.78         84 
 57.8          76 
 57.82         90 
 57.84         97 
 57.86         113 
 57.88         116 
 57.9          123 
 57.92         110 
 57.94         144 
 57.96         151 
 57.98         164 
 58            186 
 58.02         186 
 58.04         216 
 58.06         260 
 58.08         257 
 58.1          268 
 58.12         299 
 58.14         322 
 58.16         326 
 58.18         369 
 58.2          416 
 58.22         381 
 58.24         388 
 58.26         413 
 58.28         416 
 58.3          447 
 58.32         413 
 58.34         451 
 58.36         435 
 58.38         433 
 58.4          426 
 58.42         438 
 58.44         441 
 58.46         504 
 58.48         521 
 58.5          568 
 58.52         659 
 58.54         727 
 58.56         841 
 58.58         1004 
 58.6          1139 
 58.62         1242 
 58.64         1448 
 58.66         1524 
 58.68         1663 
 58.7          1646 
 58.72         1730 
 58.74         1744 
 58.76         1777 
 58.78         1899 
 58.8          2040 
 58.82         2110 
 58.84         2411 
 58.86         2571 
 58.88         2685 
 58.9          2838 
 58.92         3021 
 58.94         3126 
 58.96         3112 
 58.98         3097 
 59            3035 
 59.02         3030 
 59.04         2922 
 59.06         2792 
 59.08         2681 
 59.1          2383 
 59.12         2325 
 59.14         2082 
 59.16         1855 
 59.18         1628 
 59.2          1434 
 59.22         1281 
 59.24         1081 
 59.26         966 
 59.28         782 
 59.3          699 
 59.32         599 
 59.34         520 
 59.36         403 
 59.38         352 
 59.4          348 
 59.42         298 
 59.44         239 
 59.46         217 
 59.48         193 
 59.5          159 
 59.52         161 
 59.54         151 
 59.56         147 
 59.58         130 
 59.6          149 
 59.62         134 
 59.64         126 
 59.66         126 
 59.68         102 
 59.7          113 
 59.72         122 
 59.74         98 
 59.76         108 
 59.78         109 
 59.8          90 
 59.82         97 
 59.84         85 
 59.86         103 
 59.88         103 
 59.9          108 
 59.92         81 
 59.94         98 
 59.96         104 
 59.98         88 
 60            94 
 60.02         115 
 60.04         107 
 60.06         97 
 60.08         102 
 60.1          98 
 60.12         112 
 60.14         135 
 60.16         160 
 60.18         145 
 60.2          189 
 60.22         198 
 60.24         205 
 60.26         234 
 60.28         264 
 60.3          252 
 60.32         279 
 60.34         251 
 60.36         271 
 60.38         273 
 60.4          289 
 60.42         332 
 60.44         330 
 60.46         364 
 60.48         409 
 60.5          429 
 60.52         492 
 60.54         564 
 60.56         603 
 60.58         631 
 60.6          710 
 60.62         691 
 60.64         749 
 60.66         726 
 60.68         697 
 60.7          711 
 60.72         711 
 60.74         692 
 60.76         669 
 60.78         603 
 60.8          576 
 60.82         472 
 60.84         493 
 60.86         444 
 60.88         415 
 60.9          358 
 60.92         315 
 60.94         276 
 60.96         241 
 60.98         199 
 61            183 
 61.02         209 
 61.04         149 
 61.06         136 
 61.08         125 
 61.1          127 
 61.12         131 
 61.14         106 
 61.16         104 
 61.18         111 
 61.2          104 
 61.22         93 
 61.24         99 
 61.26         99 
 61.28         93 
 61.3          95 
 61.32         98 
 61.34         106 
 61.36         104 
 61.38         93 
 61.4          100 
 61.42         103 
 61.44         98 
 61.46         110 
 61.48         102 
 61.5          98 
 61.52         112 
 61.54         111 
 61.56         113 
 61.58         96 
 61.6          93 
 61.62         129 
 61.64         94 
 61.66         94 
 61.68         117 
 61.7          95 
 61.72         101 
 61.74         92 
 61.76         91 
 61.78         79 
 61.8          98 
 61.82         82 
 61.84         81 
 61.86         82 
 61.88         80 
 61.9          94 
 61.92         72 
 61.94         85 
 61.96         72 
 61.98         87 
 62            89 
 62.02         70 
 62.04         91 
 62.06         93 
 62.08         80 
 62.1          89 
 62.12         74 
 62.14         105 
 62.16         90 
 62.18         79 
 62.2          71 
 62.22         93 
 62.24         67 
 62.26         101 
 62.28         98 
 62.3          86 
 62.32         100 
 62.34         103 
 62.36         97 
 62.38         105 
 62.4          95 
 62.42         117 
 62.44         103 
 62.46         101 
 62.48         118 
 62.5          133 
 62.52         111 
 62.54         117 
 62.56         128 
 62.58         121 
 62.6          134 
 62.62         123 
 62.64         107 
 62.66         119 
 62.68         131 
 62.7          138 
 62.72         122 
 62.74         107 
 62.76         165 
 62.78         137 
 62.8          136 
 62.82         138 
 62.84         144 
 62.86         134 
 62.88         134 
 62.9          134 
 62.92         162 
 62.94         195 
 62.96         176 
 62.98         193 
 63            203 
 63.02         194 
 63.04         235 
 63.06         270 
 63.08         318 
 63.1          356 
 63.12         451 
 63.14         487 
 63.16         556 
 63.18         604 
 63.2          651 
 63.22         637 
 63.24         694 
 63.26         739 
 63.28         670 
 63.3          683 
 63.32         622 
 63.34         592 
 63.36         557 
 63.38         498 
 63.4          484 
 63.42         440 
 63.44         408 
 63.46         341 
 63.48         331 
 63.5          277 
 63.52         241 
 63.54         228 
 63.56         196 
 63.58         181 
 63.6          146 
 63.62         180 
 63.64         139 
 63.66         141 
 63.68         135 
 63.7          124 
 63.72         112 
 63.74         104 
 63.76         118 
 63.78         120 
 63.8          104 
 63.82         119 
 63.84         89 
 63.86         102 
 63.88         96 
 63.9          70 
 63.92         82 
 63.94         91 
 63.96         87 
 63.98         84 
 64            86 
 64.02         85 
 64.04         86 
 64.06         106 
 64.08         89 
 64.1          93 
 64.12         87 
 64.14         87 
 64.16         115 
 64.18         88 
 64.2          97 
 64.22         100 
 64.24         120 
 64.26         123 
 64.28         112 
 64.3          113 
 64.32         124 
 64.34         111 
 64.36         142 
 64.38         141 
 64.4          137 
 64.42         155 
 64.44         161 
 64.46         151 
 64.48         168 
 64.5          186 
 64.52         212 
 64.54         228 
 64.56         245 
 64.58         269 
 64.6          284 
 64.62         277 
 64.64         269 
 64.66         299 
 64.68         312 
 64.7          344 
 64.72         360 
 64.74         329 
 64.76         347 
 64.78         398 
 64.8          394 
 64.82         420 
 64.84         479 
 64.86         464 
 64.88         484 
 64.9          532 
 64.92         535 
 64.94         507 
 64.96         548 
 64.98         523 
 65            547 
 65.02         555 
 65.04         554 
 65.06         568 
 65.08         682 
 65.1          722 
 65.12         765 
 65.14         859 
 65.16         935 
 65.18         1079 
 65.2          1165 
 65.22         1193 
 65.24         1200 
 65.26         1248 
 65.28         1304 
 65.3          1241 
 65.32         1245 
 65.34         1188 
 65.36         1179 
 65.38         1172 
 65.4          1135 
 65.42         1163 
 65.44         1175 
 65.46         1227 
 65.48         1248 
 65.5          1305 
 65.52         1239 
 65.54         1318 
 65.56         1221 
 65.58         1167 
 65.6          1120 
 65.62         1051 
 65.64         1033 
 65.66         962 
 65.68         887 
 65.7          847 
 65.72         855 
 65.74         746 
 65.76         664 
 65.78         621 
 65.8          562 
 65.82         502 
 65.84         435 
 65.86         398 
 65.88         315 
 65.9          321 
 65.92         266 
 65.94         227 
 65.96         195 
 65.98         222 
 66            185 
 66.02         176 
 66.04         163 
 66.06         164 
 66.08         194 
 66.1          184 
 66.12         196 
 66.14         179 
 66.16         167 
 66.18         177 
 66.2          154 
 66.22         168 
 66.24         179 
 66.26         167 
 66.28         147 
 66.3          152 
 66.32         157 
 66.34         140 
 66.36         151 
 66.38         168 
 66.4          156 
 66.42         132 
 66.44         136 
 66.46         113 
 66.48         146 
 66.5          123 
 66.52         104 
 66.54         111 
 66.56         115 
 66.58         98 
 66.6          102 
 66.62         109 
 66.64         94 
 66.66         105 
 66.68         81 
 66.7          87 
 66.72         69 
 66.74         92 
 66.76         94 
 66.78         91 
 66.8          91 
 66.82         84 
 66.84         81 
 66.86         95 
 66.88         80 
 66.9          66 
 66.92         76 
 66.94         68 
 66.96         99 
 66.98         64 
 67            116 
 67.02         85 
 67.04         83 
 67.06         111 
 67.08         92 
 67.1          87 
 67.12         102 
 67.14         89 
 67.16         104 
 67.18         102 
 67.2          97 
 67.22         110 
 67.24         89 
 67.26         107 
 67.28         128 
 67.3          113 
 67.32         120 
 67.34         115 
 67.36         136 
 67.38         126 
 67.4          126 
 67.42         146 
 67.44         185 
 67.46         212 
 67.48         224 
 67.5          277 
 67.52         299 
 67.54         347 
 67.56         365 
 67.58         396 
 67.6          449 
 67.62         488 
 67.64         541 
 67.66         547 
 67.68         518 
 67.7          640 
 67.72         673 
 67.74         724 
 67.76         801 
 67.78         887 
 67.8          877 
 67.82         908 
 67.84         973 
 67.86         996 
 67.88         953 
 67.9          917 
 67.92         929 
 67.94         929 
 67.96         856 
 67.98         840 
 68            821 
 68.02         750 
 68.04         711 
 68.06         663 
 68.08         590 
 68.1          585 
 68.12         532 
 68.14         418 
 68.16         381 
 68.18         383 
 68.2          347 
 68.22         303 
 68.24         268 
 68.26         254 
 68.28         222 
 68.3          200 
 68.32         168 
 68.34         168 
 68.36         174 
 68.38         156 
 68.4          130 
 68.42         133 
 68.44         150 
 68.46         152 
 68.48         167 
 68.5          164 
 68.52         158 
 68.54         160 
 68.56         170 
 68.58         174 
 68.6          198 
 68.62         185 
 68.64         167 
 68.66         208 
 68.68         180 
 68.7          197 
 68.72         234 
 68.74         246 
 68.76         283 
 68.78         290 
 68.8          344 
 68.82         394 
 68.84         417 
 68.86         449 
 68.88         448 
 68.9          494 
 68.92         502 
 68.94         544 
 68.96         582 
 68.98         615 
 69            584 
 69.02         592 
 69.04         605 
 69.06         584 
 69.08         613 
 69.1          606 
 69.12         624 
 69.14         648 
 69.16         637 
 69.18         581 
 69.2          596 
 69.22         609 
 69.24         540 
 69.26         528 
 69.28         550 
 69.3          520 
 69.32         499 
 69.34         491 
 69.36         499 
 69.38         433 
 69.4          494 
 69.42         570 
 69.44         553 
 69.46         580 
 69.48         607 
 69.5          661 
 69.52         657 
 69.54         716 
 69.56         710 
 69.58         745 
 69.6          630 
 69.62         722 
 69.64         634 
 69.66         598 
 69.68         585 
 69.7          537 
 69.72         508 
 69.74         470 
 69.76         486 
 69.78         433 
 69.8          389 
 69.82         380 
 69.84         299 
 69.86         278 
 69.88         271 
 69.9          231 
 69.92         202 
 69.94         213 
 69.96         150 
 69.98         188 
 70            155 
 70.02         157 
 70.04         97 
 70.06         108 
 70.08         124 
 70.1          129 
 70.12         126 
 70.14         126 
 70.16         139 
 70.18         135 
 70.2          128 
 70.22         125 
 70.24         105 
 70.26         119 
 70.28         133 
 70.3          131 
 70.32         138 
 70.34         88 
 70.36         101 
 70.38         119 
 70.4          103 
 70.42         111 
 70.44         107 
 70.46         89 
 70.48         99 
 70.5          93 
 70.52         111 
 70.54         93 
 70.56         109 
 70.58         94 
 70.6          79 
 70.62         121 
 70.64         100 
 70.66         78 
 70.68         88 
 70.7          83 
 70.72         81 
 70.74         96 
 70.76         73 
 70.78         77 
 70.8          67 
 70.82         78 
 70.84         70 
 70.86         76 
 70.88         72 
 70.9          78 
 70.92         76 
 70.94         73 
 70.96         79 
 70.98         88 
 71            88 
 71.02         93 
 71.04         97 
 71.06         98 
 71.08         107 
 71.1          93 
 71.12         104 
 71.14         113 
 71.16         153 
 71.18         131 
 71.2          149 
 71.22         142 
 71.24         151 
 71.26         186 
 71.28         187 
 71.3          225 
 71.32         256 
 71.34         269 
 71.36         266 
 71.38         344 
 71.4          313 
 71.42         353 
 71.44         369 
 71.46         380 
 71.48         359 
 71.5          391 
 71.52         376 
 71.54         376 
 71.56         378 
 71.58         356 
 71.6          324 
 71.62         328 
 71.64         325 
 71.66         277 
 71.68         291 
 71.7          262 
 71.72         275 
 71.74         278 
 71.76         238 
 71.78         209 
 71.8          264 
 71.82         196 
 71.84         206 
 71.86         243 
 71.88         241 
 71.9          281 
 71.92         291 
 71.94         351 
 71.96         387 
 71.98         416 
 72            427 
 72.02         444 
 72.04         494 
 72.06         465 
 72.08         485 
 72.1          485 
 72.12         475 
 72.14         468 
 72.16         488 
 72.18         462 
 72.2          463 
 72.22         446 
 72.24         429 
 72.26         425 
 72.28         390 
 72.3          417 
 72.32         397 
 72.34         375 
 72.36         374 
 72.38         336 
 72.4          372 
 72.42         329 
 72.44         313 
 72.46         360 
 72.48         327 
 72.5          359 
 72.52         327 
 72.54         335 
 72.56         346 
 72.58         393 
 72.6          390 
 72.62         353 
 72.64         368 
 72.66         383 
 72.68         334 
 72.7          387 
 72.72         368 
 72.74         356 
 72.76         367 
 72.78         353 
 72.8          376 
 72.82         367 
 72.84         341 
 72.86         349 
 72.88         329 
 72.9          306 
 72.92         285 
 72.94         355 
 72.96         345 
 72.98         363 
 73            324 
 73.02         367 
 73.04         342 
 73.06         365 
 73.08         402 
 73.1          406 
 73.12         432 
 73.14         444 
 73.16         469 
 73.18         493 
 73.2          580 
 73.22         598 
 73.24         551 
 73.26         666 
 73.28         666 
 73.3          705 
 73.32         723 
 73.34         765 
 73.36         658 
 73.38         658 
 73.4          743 
 73.42         720 
 73.44         713 
 73.46         731 
 73.48         717 
 73.5          732 
 73.52         707 
 73.54         658 
 73.56         735 
 73.58         674 
 73.6          684 
 73.62         715 
 73.64         728 
 73.66         685 
 73.68         747 
 73.7          722 
 73.72         747 
 73.74         683 
 73.76         662 
 73.78         678 
 73.8          636 
 73.82         557 
 73.84         603 
 73.86         546 
 73.88         502 
 73.9          489 
 73.92         490 
 73.93999      422 
 73.96         387 
 73.98         387 
 74            342 
 74.02         357 
 74.04         303 
 74.06         289 
 74.08         306 
 74.1          256 
 74.12         232 
 74.14         213 
 74.16         203 
 74.18         200 
 74.2          166 
 74.22         188 
 74.24         177 
 74.26         140 
 74.28         152 
 74.3          125 
 74.32         127 
 74.34         155 
 74.36         141 
 74.38         124 
 74.4          119 
 74.42         125 
 74.43999      126 
 74.46         147 
 74.48         118 
 74.5          125 
 74.52         124 
 74.54         133 
 74.56         117 
 74.58         112 
 74.6          113 
 74.62         117 
 74.64         109 
 74.66         117 
 74.68         124 
 74.7          99 
 74.72         93 
 74.74         116 
 74.76         109 
 74.78         114 
 74.8          106 
 74.82         97 
 74.84         86 
 74.86         105 
 74.88         102 
 74.9          98 
 74.92         94 
 74.93999      100 
 74.96         120 
 74.98         74 
 75            89 
