LAGP 5 400°C kalziniert  Original Data
 3151 
 12            788 
 12.02         748 
 12.04         790 
 12.06         762 
 12.08         733 
 12.1          690 
 12.12         720 
 12.14         763 
 12.16         735 
 12.18         735 
 12.2          743 
 12.22         674 
 12.24         765 
 12.26         662 
 12.28         704 
 12.3          695 
 12.32         666 
 12.34         681 
 12.36         711 
 12.38         695 
 12.4          638 
 12.42         580 
 12.44         667 
 12.46         644 
 12.48         625 
 12.5          598 
 12.52         594 
 12.54         628 
 12.56         615 
 12.58         628 
 12.6          636 
 12.62         605 
 12.64         574 
 12.66         612 
 12.68         611 
 12.7          563 
 12.72         556 
 12.74         566 
 12.76         577 
 12.78         529 
 12.8          591 
 12.82         571 
 12.84         542 
 12.86         585 
 12.88         600 
 12.9          577 
 12.92         532 
 12.94         560 
 12.96         570 
 12.98         542 
 13            537 
 13.02         515 
 13.04         541 
 13.06         531 
 13.08         515 
 13.1          558 
 13.12         495 
 13.14         512 
 13.16         501 
 13.18         507 
 13.2          565 
 13.22         518 
 13.24         536 
 13.26         509 
 13.28         591 
 13.3          560 
 13.32         581 
 13.34         558 
 13.36         589 
 13.38         587 
 13.4          598 
 13.42         568 
 13.44         624 
 13.46         517 
 13.48         626 
 13.5          647 
 13.52         595 
 13.54         609 
 13.56         671 
 13.58         640 
 13.6          691 
 13.62         637 
 13.64         643 
 13.66         573 
 13.68         574 
 13.7          572 
 13.72         559 
 13.74         489 
 13.76         467 
 13.78         512 
 13.8          490 
 13.82         499 
 13.84         460 
 13.86         465 
 13.88         490 
 13.9          409 
 13.92         412 
 13.94         450 
 13.96         470 
 13.98         434 
 14            418 
 14.02         450 
 14.04         454 
 14.06         419 
 14.08         423 
 14.1          401 
 14.12         407 
 14.14         421 
 14.16         396 
 14.18         383 
 14.2          392 
 14.22         430 
 14.24         392 
 14.26         413 
 14.28         401 
 14.3          403 
 14.32         408 
 14.34         392 
 14.36         403 
 14.38         414 
 14.4          383 
 14.42         417 
 14.44         429 
 14.46         413 
 14.48         458 
 14.5          449 
 14.52         427 
 14.54         436 
 14.56         445 
 14.58         468 
 14.6          488 
 14.62         468 
 14.64         520 
 14.66         531 
 14.68         580 
 14.7          568 
 14.72         630 
 14.74         690 
 14.76         719 
 14.78         762 
 14.8          844 
 14.82         924 
 14.84         1031 
 14.86         1155 
 14.88         1210 
 14.9          1415 
 14.92         1637 
 14.94         1808 
 14.96         1982 
 14.98         2264 
 15            2648 
 15.02         2787 
 15.04         2707 
 15.06         2553 
 15.08         2134 
 15.1          1692 
 15.12         1235 
 15.14         937 
 15.16         680 
 15.18         568 
 15.2          505 
 15.22         425 
 15.24         440 
 15.26         402 
 15.28         370 
 15.3          393 
 15.32         356 
 15.34         341 
 15.36         320 
 15.38         379 
 15.4          327 
 15.42         294 
 15.44         313 
 15.46         342 
 15.48         297 
 15.5          292 
 15.52         313 
 15.54         328 
 15.56         298 
 15.58         319 
 15.6          283 
 15.62         286 
 15.64         273 
 15.66         302 
 15.68         302 
 15.7          269 
 15.72         293 
 15.74         280 
 15.76         295 
 15.78         278 
 15.8          300 
 15.82         276 
 15.84         288 
 15.86         309 
 15.88         290 
 15.9          306 
 15.92         304 
 15.94         295 
 15.96         314 
 15.98         322 
 16            326 
 16.02         304 
 16.04         295 
 16.06         331 
 16.08         317 
 16.1          311 
 16.12         334 
 16.14         305 
 16.16         316 
 16.18         352 
 16.2          326 
 16.22         371 
 16.24         372 
 16.26         343 
 16.28         341 
 16.3          332 
 16.32         308 
 16.34         318 
 16.36         312 
 16.38         316 
 16.4          328 
 16.42         265 
 16.44         282 
 16.46         303 
 16.48         291 
 16.5          292 
 16.52         313 
 16.54         307 
 16.56         316 
 16.58         306 
 16.6          290 
 16.62         302 
 16.64         296 
 16.66         293 
 16.68         311 
 16.7          316 
 16.72         300 
 16.74         297 
 16.76         328 
 16.78         298 
 16.8          295 
 16.82         271 
 16.84         328 
 16.86         307 
 16.88         362 
 16.9          336 
 16.92         327 
 16.94         371 
 16.96         357 
 16.98         379 
 17            393 
 17.02         342 
 17.04         415 
 17.06         443 
 17.08         405 
 17.1          447 
 17.12         507 
 17.14         515 
 17.16         506 
 17.18         535 
 17.2          565 
 17.22         566 
 17.24         642 
 17.26         747 
 17.28         733 
 17.3          755 
 17.32         830 
 17.34         856 
 17.36         861 
 17.38         936 
 17.4          981 
 17.42         973 
 17.44         1000 
 17.46         1036 
 17.48         943 
 17.5          990 
 17.52         1010 
 17.54         919 
 17.56         853 
 17.58         857 
 17.6          866 
 17.62         827 
 17.64         760 
 17.66         754 
 17.68         721 
 17.7          732 
 17.72         707 
 17.74         679 
 17.76         681 
 17.78         653 
 17.8          665 
 17.82         620 
 17.84         682 
 17.86         702 
 17.88         634 
 17.9          674 
 17.92         660 
 17.94         714 
 17.96         696 
 17.98         688 
 18            676 
 18.02         681 
 18.04         712 
 18.06         715 
 18.08         709 
 18.1          712 
 18.12         673 
 18.14         675 
 18.16         717 
 18.18         660 
 18.2          622 
 18.22         555 
 18.24         540 
 18.26         531 
 18.28         468 
 18.3          464 
 18.32         411 
 18.34         397 
 18.36         364 
 18.38         382 
 18.4          338 
 18.42         308 
 18.44         332 
 18.46         322 
 18.48         285 
 18.5          295 
 18.52         298 
 18.54         277 
 18.56         295 
 18.58         279 
 18.6          280 
 18.62         235 
 18.64         298 
 18.66         301 
 18.68         251 
 18.7          268 
 18.72         283 
 18.74         270 
 18.76         256 
 18.78         263 
 18.8          264 
 18.82         297 
 18.84         272 
 18.86         233 
 18.88         257 
 18.9          258 
 18.92         249 
 18.94         262 
 18.96         250 
 18.98         233 
 19            245 
 19.02         262 
 19.04         277 
 19.06         252 
 19.08         248 
 19.1          243 
 19.12         270 
 19.14         237 
 19.16         296 
 19.18         297 
 19.2          266 
 19.22         254 
 19.24         254 
 19.26         274 
 19.28         206 
 19.3          265 
 19.32         248 
 19.34         267 
 19.36         258 
 19.38         234 
 19.4          233 
 19.42         266 
 19.44         251 
 19.46         251 
 19.48         259 
 19.5          266 
 19.52         271 
 19.54         253 
 19.56         271 
 19.58         268 
 19.6          228 
 19.62         267 
 19.64         255 
 19.66         271 
 19.68         270 
 19.7          244 
 19.72         242 
 19.74         278 
 19.76         291 
 19.78         236 
 19.8          278 
 19.82         264 
 19.84         255 
 19.86         259 
 19.88         257 
 19.9          270 
 19.92         245 
 19.94         296 
 19.96         307 
 19.98         298 
 20            294 
 20.02         308 
 20.04         280 
 20.06         271 
 20.08         301 
 20.1          334 
 20.12         326 
 20.14         360 
 20.16         324 
 20.18         379 
 20.2          348 
 20.22         371 
 20.24         412 
 20.26         355 
 20.28         398 
 20.3          466 
 20.32         514 
 20.34         498 
 20.36         534 
 20.38         611 
 20.4          674 
 20.42         733 
 20.44         805 
 20.46         844 
 20.48         874 
 20.5          931 
 20.52         925 
 20.54         873 
 20.56         848 
 20.58         809 
 20.6          726 
 20.62         657 
 20.64         758 
 20.66         678 
 20.68         707 
 20.7          692 
 20.72         701 
 20.74         687 
 20.76         737 
 20.78         728 
 20.8          748 
 20.82         808 
 20.84         827 
 20.86         859 
 20.88         900 
 20.9          1087 
 20.92         1086 
 20.94         1189 
 20.96         1353 
 20.98         1489 
 21            1709 
 21.02         1775 
 21.04         1970 
 21.06         2325 
 21.08         2598 
 21.1          2963 
 21.12         3441 
 21.14         4106 
 21.16         4753 
 21.18         5741 
 21.2          6539 
 21.22         7596 
 21.24         8270 
 21.26         9295 
 21.28         9438 
 21.3          9268 
 21.32         8602 
 21.34         8159 
 21.36         7547 
 21.38         7198 
 21.4          7020 
 21.42         6951 
 21.44         6610 
 21.46         5975 
 21.48         5101 
 21.5          4090 
 21.52         3086 
 21.54         2274 
 21.56         1639 
 21.58         1319 
 21.6          1073 
 21.62         997 
 21.64         880 
 21.66         819 
 21.68         777 
 21.7          703 
 21.72         696 
 21.74         684 
 21.76         675 
 21.78         625 
 21.8          639 
 21.82         596 
 21.84         596 
 21.86         614 
 21.88         547 
 21.9          590 
 21.92         475 
 21.94         527 
 21.96         513 
 21.98         510 
 22            488 
 22.02         476 
 22.04         511 
 22.06         458 
 22.08         471 
 22.1          436 
 22.12         485 
 22.14         474 
 22.16         461 
 22.18         507 
 22.2          490 
 22.22         445 
 22.24         493 
 22.26         500 
 22.28         529 
 22.3          527 
 22.32         538 
 22.34         513 
 22.36         507 
 22.38         500 
 22.4          481 
 22.42         499 
 22.44         499 
 22.46         509 
 22.48         511 
 22.5          466 
 22.52         492 
 22.54         471 
 22.56         467 
 22.58         449 
 22.6          460 
 22.62         432 
 22.64         480 
 22.66         436 
 22.68         478 
 22.7          477 
 22.72         501 
 22.74         469 
 22.76         485 
 22.78         485 
 22.8          515 
 22.82         516 
 22.84         544 
 22.86         520 
 22.88         520 
 22.9          550 
 22.92         571 
 22.94         592 
 22.96         582 
 22.98         521 
 23            572 
 23.02         552 
 23.04         545 
 23.06         554 
 23.08         555 
 23.1          589 
 23.12         570 
 23.14         515 
 23.16         542 
 23.18         518 
 23.2          549 
 23.22         596 
 23.24         534 
 23.26         598 
 23.28         596 
 23.3          631 
 23.32         665 
 23.34         627 
 23.36         640 
 23.38         715 
 23.4          676 
 23.42         688 
 23.44         721 
 23.46         708 
 23.48         718 
 23.5          697 
 23.52         670 
 23.54         667 
 23.56         652 
 23.58         628 
 23.6          650 
 23.62         608 
 23.64         574 
 23.66         602 
 23.68         566 
 23.7          549 
 23.72         581 
 23.74         546 
 23.76         518 
 23.78         556 
 23.8          532 
 23.82         552 
 23.84         563 
 23.86         508 
 23.88         541 
 23.9          549 
 23.92         551 
 23.94         525 
 23.96         544 
 23.98         593 
 24            537 
 24.02         592 
 24.04         546 
 24.06         518 
 24.08         564 
 24.1          519 
 24.12         521 
 24.14         493 
 24.16         472 
 24.18         467 
 24.2          456 
 24.22         458 
 24.24         406 
 24.26         401 
 24.28         396 
 24.3          400 
 24.32         415 
 24.34         346 
 24.36         396 
 24.38         387 
 24.4          397 
 24.42         429 
 24.44         392 
 24.46         373 
 24.48         380 
 24.5          455 
 24.52         385 
 24.54         422 
 24.56         425 
 24.58         453 
 24.6          476 
 24.62         488 
 24.64         512 
 24.66         552 
 24.68         584 
 24.7          636 
 24.72         700 
 24.74         725 
 24.76         761 
 24.78         840 
 24.8          927 
 24.82         991 
 24.84         1199 
 24.86         1351 
 24.88         1461 
 24.9          1764 
 24.92         2078 
 24.94         2358 
 24.96         2856 
 24.98         3534 
 25            4073 
 25.02         5178 
 25.04         6092 
 25.06         7379 
 25.08         8330 
 25.1          9040 
 25.12         9428 
 25.14         9026 
 25.16         8149 
 25.18         6612 
 25.2          5179 
 25.22         3839 
 25.24         2731 
 25.26         2064 
 25.28         1592 
 25.3          1403 
 25.32         1098 
 25.34         1044 
 25.36         998 
 25.38         917 
 25.4          898 
 25.42         897 
 25.44         913 
 25.46         878 
 25.48         934 
 25.5          918 
 25.52         968 
 25.54         929 
 25.56         1016 
 25.58         996 
 25.6          1087 
 25.62         1128 
 25.64         1199 
 25.66         1237 
 25.68         1321 
 25.7          1293 
 25.72         1410 
 25.74         1524 
 25.76         1684 
 25.78         1925 
 25.8          2151 
 25.82         2407 
 25.84         2737 
 25.86         2954 
 25.88         3208 
 25.9          3573 
 25.92         3639 
 25.94         3317 
 25.96         3088 
 25.98         2745 
 26            2300 
 26.02         1957 
 26.04         1656 
 26.06         1452 
 26.08         1274 
 26.1          1125 
 26.12         993 
 26.14         1056 
 26.16         998 
 26.18         1005 
 26.2          1021 
 26.22         1087 
 26.24         1145 
 26.26         1146 
 26.28         1253 
 26.3          1342 
 26.32         1368 
 26.34         1418 
 26.36         1297 
 26.38         1297 
 26.4          1219 
 26.42         1109 
 26.44         1044 
 26.46         956 
 26.48         826 
 26.5          782 
 26.52         670 
 26.54         612 
 26.56         590 
 26.58         578 
 26.6          551 
 26.62         530 
 26.64         512 
 26.66         476 
 26.68         526 
 26.7          521 
 26.72         500 
 26.74         478 
 26.76         530 
 26.78         552 
 26.8          543 
 26.82         539 
 26.84         523 
 26.86         573 
 26.88         637 
 26.9          648 
 26.92         651 
 26.94         600 
 26.96         635 
 26.98         646 
 27            652 
 27.02         661 
 27.04         608 
 27.06         583 
 27.08         552 
 27.1          532 
 27.12         533 
 27.14         491 
 27.16         476 
 27.18         467 
 27.2          438 
 27.22         424 
 27.24         428 
 27.26         434 
 27.28         402 
 27.3          349 
 27.32         385 
 27.34         359 
 27.36         373 
 27.38         371 
 27.4          360 
 27.42         358 
 27.44         331 
 27.46         321 
 27.48         354 
 27.5          337 
 27.52         356 
 27.54         336 
 27.56         336 
 27.58         354 
 27.6          317 
 27.62         343 
 27.64         312 
 27.66         360 
 27.68         340 
 27.7          323 
 27.72         320 
 27.74         339 
 27.76         316 
 27.78         354 
 27.8          347 
 27.82         354 
 27.84         322 
 27.86         362 
 27.88         332 
 27.9          348 
 27.92         329 
 27.94         399 
 27.96         395 
 27.98         382 
 28            377 
 28.02         375 
 28.04         402 
 28.06         414 
 28.08         393 
 28.1          453 
 28.12         435 
 28.14         417 
 28.16         481 
 28.18         458 
 28.2          464 
 28.22         437 
 28.24         425 
 28.26         407 
 28.28         394 
 28.3          397 
 28.32         382 
 28.34         405 
 28.36         423 
 28.38         387 
 28.4          365 
 28.42         372 
 28.44         351 
 28.46         340 
 28.48         349 
 28.5          344 
 28.52         362 
 28.54         379 
 28.56         372 
 28.58         335 
 28.6          397 
 28.62         384 
 28.64         378 
 28.66         431 
 28.68         422 
 28.7          414 
 28.72         415 
 28.74         393 
 28.76         376 
 28.78         390 
 28.8          384 
 28.82         379 
 28.84         360 
 28.86         391 
 28.88         390 
 28.9          380 
 28.92         395 
 28.94         350 
 28.96         378 
 28.98         339 
 29            385 
 29.02         360 
 29.04         351 
 29.06         381 
 29.08         407 
 29.1          371 
 29.12         350 
 29.14         392 
 29.16         394 
 29.18         371 
 29.2          360 
 29.22         383 
 29.24         395 
 29.26         407 
 29.28         397 
 29.3          369 
 29.32         394 
 29.34         405 
 29.36         395 
 29.38         405 
 29.4          367 
 29.42         384 
 29.44         356 
 29.46         398 
 29.48         372 
 29.5          390 
 29.52         381 
 29.54         332 
 29.56         399 
 29.58         379 
 29.6          370 
 29.62         344 
 29.64         381 
 29.66         366 
 29.68         343 
 29.7          345 
 29.72         389 
 29.74         367 
 29.76         385 
 29.78         378 
 29.8          397 
 29.82         418 
 29.84         400 
 29.86         401 
 29.88         467 
 29.9          493 
 29.92         462 
 29.94         514 
 29.96         542 
 29.98         548 
 30            527 
 30.02         612 
 30.04         658 
 30.06         663 
 30.08         716 
 30.1          790 
 30.12         875 
 30.14         944 
 30.16         1036 
 30.18         1139 
 30.2          1326 
 30.22         1530 
 30.24         1708 
 30.26         1996 
 30.28         2489 
 30.3          2983 
 30.32         3627 
 30.34         4310 
 30.36         4901 
 30.38         5210 
 30.4          5413 
 30.42         5398 
 30.44         4858 
 30.46         4247 
 30.48         3577 
 30.5          2918 
 30.52         2220 
 30.54         1655 
 30.56         1374 
 30.58         1174 
 30.6          1021 
 30.62         868 
 30.64         861 
 30.66         818 
 30.68         805 
 30.7          766 
 30.72         785 
 30.74         725 
 30.76         681 
 30.78         670 
 30.8          680 
 30.82         631 
 30.84         615 
 30.86         585 
 30.88         561 
 30.9          558 
 30.92         529 
 30.94         494 
 30.96         561 
 30.98         502 
 31            507 
 31.02         488 
 31.04         482 
 31.06         483 
 31.08         465 
 31.1          435 
 31.12         448 
 31.14         436 
 31.16         489 
 31.18         489 
 31.2          467 
 31.22         467 
 31.24         462 
 31.26         509 
 31.28         529 
 31.3          502 
 31.32         542 
 31.34         534 
 31.36         610 
 31.38         624 
 31.4          606 
 31.42         679 
 31.44         680 
 31.46         675 
 31.48         725 
 31.5          719 
 31.52         711 
 31.54         706 
 31.56         669 
 31.58         668 
 31.6          580 
 31.62         537 
 31.64         523 
 31.66         504 
 31.68         437 
 31.7          441 
 31.72         425 
 31.74         405 
 31.76         348 
 31.78         373 
 31.8          330 
 31.82         317 
 31.84         340 
 31.86         295 
 31.88         321 
 31.9          289 
 31.92         280 
 31.94         263 
 31.96         281 
 31.98         229 
 32            253 
 32.02         255 
 32.04         249 
 32.06         255 
 32.08         232 
 32.1          235 
 32.12         236 
 32.14         217 
 32.16         222 
 32.18         255 
 32.2          245 
 32.22         216 
 32.24         236 
 32.26         228 
 32.28         224 
 32.3          227 
 32.32         230 
 32.34         212 
 32.36         213 
 32.38         220 
 32.4          249 
 32.42         233 
 32.44         199 
 32.46         200 
 32.48         216 
 32.5          202 
 32.52         222 
 32.54         227 
 32.56         223 
 32.58         189 
 32.6          205 
 32.62         226 
 32.64         223 
 32.66         222 
 32.68         229 
 32.7          252 
 32.72         227 
 32.74         245 
 32.76         223 
 32.78         228 
 32.8          228 
 32.82         240 
 32.84         229 
 32.86         239 
 32.88         194 
 32.9          250 
 32.92         244 
 32.94         268 
 32.96         268 
 32.98         281 
 33            291 
 33.02         286 
 33.04         302 
 33.06         322 
 33.08         335 
 33.1          410 
 33.12         426 
 33.14         460 
 33.16         570 
 33.18         667 
 33.2          821 
 33.22         949 
 33.24         1002 
 33.26         1337 
 33.28         1581 
 33.3          1603 
 33.32         1766 
 33.34         1816 
 33.36         1573 
 33.38         1495 
 33.4          1245 
 33.42         1059 
 33.44         909 
 33.46         747 
 33.48         631 
 33.5          569 
 33.52         439 
 33.54         405 
 33.56         452 
 33.58         415 
 33.6          393 
 33.62         434 
 33.64         434 
 33.66         447 
 33.68         457 
 33.7          524 
 33.72         549 
 33.74         612 
 33.76         735 
 33.78         762 
 33.8          868 
 33.82         1011 
 33.84         1198 
 33.86         1535 
 33.88         1690 
 33.9          2100 
 33.92         2477 
 33.94         2730 
 33.96         3137 
 33.98         3217 
 34            3377 
 34.02         3232 
 34.04         2991 
 34.06         2655 
 34.08         2291 
 34.1          1807 
 34.12         1417 
 34.14         1149 
 34.16         967 
 34.18         781 
 34.2          629 
 34.22         541 
 34.24         468 
 34.26         469 
 34.28         409 
 34.3          367 
 34.32         371 
 34.34         347 
 34.36         338 
 34.38         305 
 34.4          315 
 34.42         308 
 34.44         319 
 34.46         285 
 34.48         306 
 34.5          284 
 34.52         256 
 34.54         264 
 34.56         273 
 34.58         281 
 34.6          249 
 34.62         257 
 34.64         265 
 34.66         254 
 34.68         272 
 34.7          263 
 34.72         228 
 34.74         242 
 34.76         255 
 34.78         248 
 34.8          244 
 34.82         234 
 34.84         248 
 34.86         242 
 34.88         252 
 34.9          226 
 34.92         236 
 34.94         226 
 34.96         238 
 34.98         238 
 35            223 
 35.02         247 
 35.04         251 
 35.06         254 
 35.08         268 
 35.1          286 
 35.12         251 
 35.14         244 
 35.16         251 
 35.18         284 
 35.2          303 
 35.22         264 
 35.24         281 
 35.26         303 
 35.28         301 
 35.3          286 
 35.32         336 
 35.34         289 
 35.36         322 
 35.38         303 
 35.4          313 
 35.42         305 
 35.44         295 
 35.46         317 
 35.48         295 
 35.5          294 
 35.52         309 
 35.54         320 
 35.56         299 
 35.58         265 
 35.6          278 
 35.62         280 
 35.64         251 
 35.66         274 
 35.68         253 
 35.7          281 
 35.72         278 
 35.74         249 
 35.76         296 
 35.78         313 
 35.8          316 
 35.82         349 
 35.84         350 
 35.86         405 
 35.88         373 
 35.9          373 
 35.92         444 
 35.94         506 
 35.96         410 
 35.98         476 
 36            437 
 36.02         420 
 36.04         426 
 36.06         377 
 36.08         337 
 36.1          350 
 36.12         320 
 36.14         311 
 36.16         296 
 36.18         298 
 36.2          286 
 36.22         264 
 36.24         279 
 36.26         284 
 36.28         290 
 36.3          273 
 36.32         259 
 36.34         250 
 36.36         223 
 36.38         254 
 36.4          233 
 36.42         232 
 36.44         228 
 36.46         218 
 36.48         229 
 36.5          230 
 36.52         227 
 36.54         196 
 36.56         237 
 36.58         255 
 36.6          267 
 36.62         249 
 36.64         234 
 36.66         236 
 36.68         246 
 36.7          265 
 36.72         231 
 36.74         289 
 36.76         284 
 36.78         282 
 36.8          273 
 36.82         275 
 36.84         295 
 36.86         294 
 36.88         303 
 36.9          291 
 36.92         311 
 36.94         306 
 36.96         293 
 36.98         373 
 37            314 
 37.02         315 
 37.04         354 
 37.06         315 
 37.08         290 
 37.1          337 
 37.12         356 
 37.14         368 
 37.16         422 
 37.18         407 
 37.2          442 
 37.22         446 
 37.24         463 
 37.26         530 
 37.28         538 
 37.3          608 
 37.32         621 
 37.34         725 
 37.36         929 
 37.38         1044 
 37.4          1224 
 37.42         1448 
 37.44         1658 
 37.46         2049 
 37.48         2427 
 37.5          2827 
 37.52         2966 
 37.54         3278 
 37.56         3355 
 37.58         3481 
 37.6          3303 
 37.62         3197 
 37.64         2876 
 37.66         2522 
 37.68         2188 
 37.7          1866 
 37.72         1530 
 37.74         1283 
 37.76         1059 
 37.78         885 
 37.8          792 
 37.82         679 
 37.84         602 
 37.86         579 
 37.88         607 
 37.9          643 
 37.92         664 
 37.94         677 
 37.96         736 
 37.98         791 
 38            804 
 38.02         848 
 38.04         819 
 38.06         750 
 38.08         769 
 38.1          683 
 38.12         639 
 38.14         524 
 38.16         520 
 38.18         507 
 38.2          426 
 38.22         383 
 38.24         415 
 38.26         380 
 38.28         382 
 38.3          360 
 38.32         389 
 38.34         356 
 38.36         368 
 38.38         376 
 38.4          380 
 38.42         341 
 38.44         365 
 38.46         384 
 38.48         400 
 38.5          358 
 38.52         341 
 38.54         326 
 38.56         346 
 38.58         313 
 38.6          323 
 38.62         335 
 38.64         295 
 38.66         305 
 38.68         251 
 38.7          280 
 38.72         280 
 38.74         239 
 38.76         267 
 38.78         256 
 38.8          240 
 38.82         282 
 38.84         263 
 38.86         246 
 38.88         248 
 38.9          259 
 38.92         268 
 38.94         273 
 38.96         305 
 38.98         318 
 39            272 
 39.02         301 
 39.04         313 
 39.06         281 
 39.08         291 
 39.1          298 
 39.12         295 
 39.14         309 
 39.16         321 
 39.18         308 
 39.2          284 
 39.22         310 
 39.24         330 
 39.26         379 
 39.28         351 
 39.3          392 
 39.32         395 
 39.34         458 
 39.36         475 
 39.38         517 
 39.4          549 
 39.42         610 
 39.44         593 
 39.46         593 
 39.48         559 
 39.5          562 
 39.52         533 
 39.54         451 
 39.56         464 
 39.58         434 
 39.6          366 
 39.62         364 
 39.64         340 
 39.66         308 
 39.68         335 
 39.7          320 
 39.72         287 
 39.74         295 
 39.76         298 
 39.78         277 
 39.8          262 
 39.82         289 
 39.84         314 
 39.86         299 
 39.88         286 
 39.9          279 
 39.92         297 
 39.94         283 
 39.96         302 
 39.98         287 
 40            280 
 40.02         282 
 40.04         300 
 40.06         250 
 40.08         292 
 40.1          266 
 40.12         274 
 40.14         253 
 40.16         267 
 40.18         243 
 40.2          266 
 40.22         240 
 40.24         281 
 40.26         233 
 40.28         214 
 40.3          209 
 40.32         223 
 40.34         217 
 40.36         210 
 40.38         197 
 40.4          189 
 40.42         203 
 40.44         199 
 40.46         184 
 40.48         212 
 40.5          190 
 40.52         173 
 40.54         216 
 40.56         168 
 40.58         182 
 40.6          179 
 40.62         203 
 40.64         189 
 40.66         157 
 40.68         180 
 40.7          162 
 40.72         164 
 40.74         173 
 40.76         197 
 40.78         187 
 40.8          168 
 40.82         173 
 40.84         171 
 40.86         188 
 40.88         196 
 40.9          193 
 40.92         200 
 40.94         191 
 40.96         195 
 40.98         209 
 41            227 
 41.02         184 
 41.04         220 
 41.06         207 
 41.08         197 
 41.1          189 
 41.12         199 
 41.14         203 
 41.16         195 
 41.18         198 
 41.2          212 
 41.22         191 
 41.24         182 
 41.26         194 
 41.28         212 
 41.3          189 
 41.32         215 
 41.34         197 
 41.36         199 
 41.38         196 
 41.4          203 
 41.42         195 
 41.44         203 
 41.46         228 
 41.48         221 
 41.5          266 
 41.52         247 
 41.54         269 
 41.56         265 
 41.58         285 
 41.6          312 
 41.62         345 
 41.64         359 
 41.66         412 
 41.68         447 
 41.7          440 
 41.72         529 
 41.74         485 
 41.76         554 
 41.78         544 
 41.8          538 
 41.82         507 
 41.84         451 
 41.86         422 
 41.88         444 
 41.9          376 
 41.92         363 
 41.94         332 
 41.96         280 
 41.98         268 
 42            229 
 42.02         218 
 42.04         227 
 42.06         233 
 42.08         253 
 42.1          229 
 42.12         206 
 42.14         225 
 42.16         214 
 42.18         227 
 42.2          177 
 42.22         197 
 42.24         206 
 42.26         174 
 42.28         184 
 42.3          171 
 42.32         184 
 42.34         199 
 42.36         173 
 42.38         191 
 42.4          178 
 42.42         172 
 42.44         164 
 42.46         144 
 42.48         159 
 42.5          157 
 42.52         189 
 42.54         196 
 42.56         193 
 42.58         209 
 42.6          177 
 42.62         222 
 42.64         191 
 42.66         201 
 42.68         194 
 42.7          188 
 42.72         214 
 42.74         209 
 42.76         210 
 42.78         199 
 42.8          212 
 42.82         214 
 42.84         236 
 42.86         227 
 42.88         219 
 42.9          233 
 42.92         230 
 42.94         234 
 42.96         237 
 42.98         223 
 43            238 
 43.02         239 
 43.04         229 
 43.06         226 
 43.08         214 
 43.1          241 
 43.12         231 
 43.14         215 
 43.16         244 
 43.18         241 
 43.2          248 
 43.22         306 
 43.24         286 
 43.26         321 
 43.28         319 
 43.3          379 
 43.32         447 
 43.34         437 
 43.36         476 
 43.38         502 
 43.4          477 
 43.42         530 
 43.44         484 
 43.46         449 
 43.48         412 
 43.5          363 
 43.52         346 
 43.54         331 
 43.56         300 
 43.58         248 
 43.6          242 
 43.62         218 
 43.64         232 
 43.66         250 
 43.68         216 
 43.7          245 
 43.72         256 
 43.74         215 
 43.76         215 
 43.78         242 
 43.8          230 
 43.82         256 
 43.84         219 
 43.86         194 
 43.88         219 
 43.9          240 
 43.92         232 
 43.94         234 
 43.96         239 
 43.98         204 
 44            220 
 44.02         232 
 44.04         228 
 44.06         203 
 44.08         205 
 44.1          234 
 44.12         232 
 44.14         236 
 44.16         230 
 44.18         201 
 44.2          183 
 44.22         229 
 44.24         236 
 44.26         256 
 44.28         230 
 44.3          228 
 44.32         201 
 44.34         246 
 44.36         206 
 44.38         253 
 44.4          237 
 44.42         217 
 44.44         226 
 44.46         213 
 44.48         209 
 44.5          189 
 44.52         231 
 44.54         210 
 44.56         172 
 44.58         191 
 44.6          206 
 44.62         215 
 44.64         215 
 44.66         198 
 44.68         194 
 44.7          199 
 44.72         199 
 44.74         205 
 44.76         240 
 44.78         212 
 44.8          210 
 44.82         228 
 44.84         235 
 44.86         183 
 44.88         220 
 44.9          231 
 44.92         209 
 44.94         224 
 44.96         219 
 44.98         204 
 45            214 
 45.02         221 
 45.04         188 
 45.06         234 
 45.08         234 
 45.1          225 
 45.12         220 
 45.14         234 
 45.16         217 
 45.18         247 
 45.2          292 
 45.22         304 
 45.24         290 
 45.26         308 
 45.28         340 
 45.3          387 
 45.32         458 
 45.34         492 
 45.36         572 
 45.38         556 
 45.4          623 
 45.42         646 
 45.44         644 
 45.46         704 
 45.48         649 
 45.5          596 
 45.52         604 
 45.54         618 
 45.56         601 
 45.58         568 
 45.6          569 
 45.62         581 
 45.64         484 
 45.66         514 
 45.68         466 
 45.7          538 
 45.72         548 
 45.74         596 
 45.76         572 
 45.78         604 
 45.8          590 
 45.82         563 
 45.84         585 
 45.86         563 
 45.88         524 
 45.9          537 
 45.92         536 
 45.94         510 
 45.96         491 
 45.98         534 
 46            501 
 46.02         518 
 46.04         530 
 46.06         486 
 46.08         491 
 46.1          476 
 46.12         431 
 46.14         456 
 46.16         416 
 46.18         372 
 46.2          397 
 46.22         392 
 46.24         362 
 46.26         354 
 46.28         367 
 46.3          402 
 46.32         363 
 46.34         336 
 46.36         395 
 46.38         374 
 46.4          384 
 46.42         391 
 46.44         411 
 46.46         441 
 46.48         432 
 46.5          434 
 46.52         437 
 46.54         372 
 46.56         378 
 46.58         345 
 46.6          348 
 46.62         294 
 46.64         309 
 46.66         286 
 46.68         262 
 46.7          244 
 46.72         254 
 46.74         241 
 46.76         224 
 46.78         250 
 46.8          224 
 46.82         240 
 46.84         257 
 46.86         218 
 46.88         223 
 46.9          244 
 46.92         208 
 46.94         229 
 46.96         216 
 46.98         225 
 47            245 
 47.02         209 
 47.04         242 
 47.06         228 
 47.08         213 
 47.1          198 
 47.12         216 
 47.14         195 
 47.16         216 
 47.18         235 
 47.2          208 
 47.22         189 
 47.24         222 
 47.26         211 
 47.28         203 
 47.3          185 
 47.32         189 
 47.34         200 
 47.36         203 
 47.38         200 
 47.4          194 
 47.42         172 
 47.44         186 
 47.46         170 
 47.48         177 
 47.5          200 
 47.52         208 
 47.54         167 
 47.56         191 
 47.58         187 
 47.6          169 
 47.62         203 
 47.64         197 
 47.66         165 
 47.68         179 
 47.7          194 
 47.72         198 
 47.74         209 
 47.76         169 
 47.78         191 
 47.8          191 
 47.82         192 
 47.84         198 
 47.86         205 
 47.88         188 
 47.9          201 
 47.92         200 
 47.94         239 
 47.96         213 
 47.98         186 
 48            205 
 48.02         217 
 48.04         222 
 48.06         230 
 48.08         239 
 48.1          238 
 48.12         268 
 48.14         258 
 48.16         270 
 48.18         270 
 48.2          302 
 48.22         306 
 48.24         363 
 48.26         309 
 48.28         322 
 48.3          382 
 48.32         350 
 48.34         330 
 48.36         352 
 48.38         363 
 48.4          329 
 48.42         362 
 48.44         334 
 48.46         368 
 48.48         399 
 48.5          421 
 48.52         466 
 48.54         459 
 48.56         472 
 48.58         526 
 48.6          583 
 48.62         572 
 48.64         684 
 48.66         669 
 48.68         734 
 48.7          755 
 48.72         811 
 48.74         932 
 48.76         1032 
 48.78         1123 
 48.8          1249 
 48.82         1429 
 48.84         1608 
 48.86         1734 
 48.88         1845 
 48.9          1865 
 48.92         1927 
 48.94         1815 
 48.96         1759 
 48.98         1684 
 49            1677 
 49.02         1557 
 49.04         1506 
 49.06         1488 
 49.08         1528 
 49.1          1473 
 49.12         1421 
 49.14         1281 
 49.16         1217 
 49.18         1096 
 49.2          1014 
 49.22         940 
 49.24         901 
 49.26         732 
 49.28         675 
 49.3          621 
 49.32         509 
 49.34         430 
 49.36         420 
 49.38         362 
 49.4          321 
 49.42         331 
 49.44         324 
 49.46         310 
 49.48         309 
 49.5          303 
 49.52         295 
 49.54         310 
 49.56         292 
 49.58         269 
 49.6          286 
 49.62         300 
 49.64         283 
 49.66         242 
 49.68         288 
 49.7          263 
 49.72         247 
 49.74         224 
 49.76         247 
 49.78         202 
 49.8          225 
 49.82         203 
 49.84         196 
 49.86         198 
 49.88         199 
 49.9          221 
 49.92         178 
 49.94         184 
 49.96         181 
 49.98         183 
 50            179 
 50.02         206 
 50.04         188 
 50.06         172 
 50.08         205 
 50.1          196 
 50.12         179 
 50.14         177 
 50.16         163 
 50.18         198 
 50.2          198 
 50.22         201 
 50.24         191 
 50.26         175 
 50.28         174 
 50.3          169 
 50.32         191 
 50.34         173 
 50.36         158 
 50.38         208 
 50.4          178 
 50.42         179 
 50.44         172 
 50.46         202 
 50.48         177 
 50.5          206 
 50.52         180 
 50.54         190 
 50.56         196 
 50.58         188 
 50.6          182 
 50.62         196 
 50.64         170 
 50.66         199 
 50.68         211 
 50.7          191 
 50.72         209 
 50.74         230 
 50.76         203 
 50.78         195 
 50.8          208 
 50.82         222 
 50.84         215 
 50.86         266 
 50.88         261 
 50.9          261 
 50.92         336 
 50.94         341 
 50.96         355 
 50.98         402 
 51            388 
 51.02         383 
 51.04         433 
 51.06         408 
 51.08         445 
 51.1          431 
 51.12         420 
 51.14         435 
 51.16         427 
 51.18         439 
 51.2          438 
 51.22         491 
 51.24         489 
 51.26         507 
 51.28         489 
 51.3          560 
 51.32         587 
 51.34         579 
 51.36         611 
 51.38         598 
 51.4          619 
 51.42         646 
 51.44         655 
 51.46         734 
 51.48         770 
 51.5          882 
 51.52         921 
 51.54         1141 
 51.56         1268 
 51.58         1394 
 51.6          1423 
 51.62         1469 
 51.64         1396 
 51.66         1445 
 51.68         1369 
 51.7          1333 
 51.72         1281 
 51.74         1296 
 51.76         1255 
 51.78         1103 
 51.8          997 
 51.82         830 
 51.84         735 
 51.86         663 
 51.88         576 
 51.9          514 
 51.92         489 
 51.94         425 
 51.96         401 
 51.98         340 
 52            347 
 52.02         301 
 52.04         263 
 52.06         240 
 52.08         243 
 52.1          263 
 52.12         233 
 52.14         218 
 52.16         204 
 52.18         195 
 52.2          190 
 52.22         182 
 52.24         223 
 52.26         226 
 52.28         203 
 52.3          209 
 52.32         213 
 52.34         196 
 52.36         197 
 52.38         179 
 52.4          197 
 52.42         201 
 52.44         214 
 52.46         202 
 52.48         233 
 52.5          194 
 52.52         215 
 52.54         217 
 52.56         200 
 52.58         204 
 52.6          172 
 52.62         204 
 52.64         214 
 52.66         208 
 52.68         226 
 52.7          190 
 52.72         206 
 52.74         204 
 52.76         213 
 52.78         194 
 52.8          218 
 52.82         216 
 52.84         185 
 52.86         222 
 52.88         220 
 52.9          224 
 52.92         226 
 52.94         246 
 52.96         191 
 52.98         215 
 53            252 
 53.02         250 
 53.04         245 
 53.06         250 
 53.08         228 
 53.1          240 
 53.12         239 
 53.14         223 
 53.16         249 
 53.18         223 
 53.2          251 
 53.22         248 
 53.24         254 
 53.26         260 
 53.28         278 
 53.3          280 
 53.32         296 
 53.34         296 
 53.36         321 
 53.38         312 
 53.4          288 
 53.42         314 
 53.44         278 
 53.46         278 
 53.48         330 
 53.5          298 
 53.52         293 
 53.54         255 
 53.56         307 
 53.58         288 
 53.6          280 
 53.62         274 
 53.64         309 
 53.66         266 
 53.68         270 
 53.7          258 
 53.72         273 
 53.74         251 
 53.76         253 
 53.78         287 
 53.8          246 
 53.82         207 
 53.84         203 
 53.86         219 
 53.88         227 
 53.9          201 
 53.92         182 
 53.94         209 
 53.96         194 
 53.98         200 
 54            194 
 54.02         201 
 54.04         221 
 54.06         207 
 54.08         202 
 54.1          208 
 54.12         208 
 54.14         189 
 54.16         230 
 54.18         253 
 54.2          237 
 54.22         210 
 54.24         246 
 54.26         242 
 54.28         261 
 54.3          250 
 54.32         246 
 54.34         245 
 54.36         207 
 54.38         238 
 54.4          224 
 54.42         210 
 54.44         244 
 54.46         215 
 54.48         221 
 54.5          230 
 54.52         217 
 54.54         202 
 54.56         178 
 54.58         214 
 54.6          186 
 54.62         228 
 54.64         204 
 54.66         205 
 54.68         225 
 54.7          187 
 54.72         191 
 54.74         199 
 54.76         183 
 54.78         206 
 54.8          191 
 54.82         196 
 54.84         181 
 54.86         171 
 54.88         169 
 54.9          180 
 54.92         197 
 54.94         180 
 54.96         196 
 54.98         178 
 55            165 
 55.02         184 
 55.04         179 
 55.06         148 
 55.08         185 
 55.1          194 
 55.12         152 
 55.14         186 
 55.16         172 
 55.18         163 
 55.2          194 
 55.22         182 
 55.24         197 
 55.26         183 
 55.28         211 
 55.3          189 
 55.32         185 
 55.34         170 
 55.36         156 
 55.38         172 
 55.4          176 
 55.42         180 
 55.44         210 
 55.46         181 
 55.48         187 
 55.5          210 
 55.52         212 
 55.54         202 
 55.56         224 
 55.58         238 
 55.6          246 
 55.62         231 
 55.64         260 
 55.66         267 
 55.68         261 
 55.7          292 
 55.72         345 
 55.74         371 
 55.76         383 
 55.78         482 
 55.8          512 
 55.82         513 
 55.84         561 
 55.86         614 
 55.88         572 
 55.9          609 
 55.92         537 
 55.94         579 
 55.96         545 
 55.98         558 
 56            552 
 56.02         585 
 56.04         587 
 56.06         619 
 56.08         611 
 56.1          641 
 56.12         710 
 56.14         779 
 56.16         813 
 56.18         894 
 56.2          899 
 56.22         992 
 56.24         1022 
 56.26         1094 
 56.28         1034 
 56.3          993 
 56.32         944 
 56.34         875 
 56.36         826 
 56.38         782 
 56.4          705 
 56.42         689 
 56.44         576 
 56.46         524 
 56.48         449 
 56.5          404 
 56.52         364 
 56.54         292 
 56.56         301 
 56.58         272 
 56.6          262 
 56.62         253 
 56.64         232 
 56.66         275 
 56.68         264 
 56.7          217 
 56.72         217 
 56.74         236 
 56.76         237 
 56.78         207 
 56.8          211 
 56.82         227 
 56.84         194 
 56.86         208 
 56.88         168 
 56.9          200 
 56.92         205 
 56.94         206 
 56.96         193 
 56.98         189 
 57            175 
 57.02         183 
 57.04         175 
 57.06         183 
 57.08         193 
 57.1          172 
 57.12         171 
 57.14         174 
 57.16         148 
 57.18         155 
 57.2          182 
 57.22         184 
 57.24         174 
 57.26         187 
 57.28         141 
 57.3          171 
 57.32         173 
 57.34         174 
 57.36         164 
 57.38         198 
 57.4          159 
 57.42         177 
 57.44         151 
 57.46         169 
 57.48         137 
 57.5          186 
 57.52         163 
 57.54         158 
 57.56         154 
 57.58         149 
 57.6          186 
 57.62         188 
 57.64         175 
 57.66         179 
 57.68         159 
 57.7          165 
 57.72         151 
 57.74         187 
 57.76         184 
 57.78         147 
 57.8          187 
 57.82         157 
 57.84         184 
 57.86         182 
 57.88         177 
 57.9          203 
 57.92         162 
 57.94         178 
 57.96         196 
 57.98         204 
 58            200 
 58.02         199 
 58.04         196 
 58.06         200 
 58.08         219 
 58.1          195 
 58.12         212 
 58.14         238 
 58.16         226 
 58.18         227 
 58.2          234 
 58.22         252 
 58.24         257 
 58.26         307 
 58.28         283 
 58.3          314 
 58.32         322 
 58.34         361 
 58.36         373 
 58.38         422 
 58.4          430 
 58.42         416 
 58.44         433 
 58.46         448 
 58.48         508 
 58.5          508 
 58.52         534 
 58.54         532 
 58.56         581 
 58.58         627 
 58.6          641 
 58.62         656 
 58.64         798 
 58.66         874 
 58.68         1049 
 58.7          1086 
 58.72         1173 
 58.74         1223 
 58.76         1298 
 58.78         1386 
 58.8          1335 
 58.82         1540 
 58.84         1642 
 58.86         1650 
 58.88         1816 
 58.9          1940 
 58.92         2059 
 58.94         2200 
 58.96         2306 
 58.98         2284 
 59            2191 
 59.02         2116 
 59.04         2081 
 59.06         1889 
 59.08         1815 
 59.1          1697 
 59.12         1517 
 59.14         1451 
 59.16         1411 
 59.18         1176 
 59.2          1089 
 59.22         889 
 59.24         828 
 59.26         713 
 59.28         585 
 59.3          500 
 59.32         512 
 59.34         388 
 59.36         384 
 59.38         392 
 59.4          348 
 59.42         314 
 59.44         354 
 59.46         306 
 59.48         284 
 59.5          305 
 59.52         265 
 59.54         288 
 59.56         287 
 59.58         294 
 59.6          270 
 59.62         257 
 59.64         251 
 59.66         239 
 59.68         232 
 59.7          254 
 59.72         250 
 59.74         226 
 59.76         210 
 59.78         213 
 59.8          206 
 59.82         214 
 59.84         232 
 59.86         199 
 59.88         215 
 59.9          194 
 59.92         205 
 59.94         217 
 59.96         214 
 59.98         203 
 60            214 
 60.02         221 
 60.04         221 
 60.06         203 
 60.08         204 
 60.1          228 
 60.12         225 
 60.14         244 
 60.16         250 
 60.18         235 
 60.2          251 
 60.22         226 
 60.24         177 
 60.26         246 
 60.28         252 
 60.3          262 
 60.32         252 
 60.34         298 
 60.36         285 
 60.38         303 
 60.4          295 
 60.42         288 
 60.44         314 
 60.46         322 
 60.48         310 
 60.5          369 
 60.52         370 
 60.54         365 
 60.56         420 
 60.58         442 
 60.6          527 
 60.62         534 
 60.64         569 
 60.66         625 
 60.68         621 
 60.7          637 
 60.72         615 
 60.74         580 
 60.76         566 
 60.78         527 
 60.8          510 
 60.82         502 
 60.84         477 
 60.86         426 
 60.88         427 
 60.9          405 
 60.92         341 
 60.94         330 
 60.96         305 
 60.98         326 
 61            317 
 61.02         271 
 61.04         293 
 61.06         266 
 61.08         264 
 61.1          242 
 61.12         278 
 61.14         237 
 61.16         240 
 61.18         210 
 61.2          220 
 61.22         249 
 61.24         239 
 61.26         237 
 61.28         244 
 61.3          241 
 61.32         276 
 61.34         257 
 61.36         224 
 61.38         245 
 61.4          211 
 61.42         253 
 61.44         227 
 61.46         244 
 61.48         255 
 61.5          286 
 61.52         272 
 61.54         263 
 61.56         287 
 61.58         302 
 61.6          305 
 61.62         264 
 61.64         304 
 61.66         300 
 61.68         288 
 61.7          303 
 61.72         292 
 61.74         303 
 61.76         281 
 61.78         275 
 61.8          265 
 61.82         259 
 61.84         255 
 61.86         268 
 61.88         282 
 61.9          246 
 61.92         259 
 61.94         267 
 61.96         272 
 61.98         246 
 62            237 
 62.02         218 
 62.04         254 
 62.06         214 
 62.08         230 
 62.1          224 
 62.12         259 
 62.14         220 
 62.16         236 
 62.18         204 
 62.2          253 
 62.22         239 
 62.24         215 
 62.26         233 
 62.28         219 
 62.3          217 
 62.32         235 
 62.34         221 
 62.36         238 
 62.38         215 
 62.4          235 
 62.42         211 
 62.44         218 
 62.46         221 
 62.48         230 
 62.5          230 
 62.52         245 
 62.54         225 
 62.56         223 
 62.58         238 
 62.6          248 
 62.62         225 
 62.64         257 
 62.66         227 
 62.68         236 
 62.7          284 
 62.72         224 
 62.74         224 
 62.76         241 
 62.78         255 
 62.8          215 
 62.82         234 
 62.84         271 
 62.86         269 
 62.88         244 
 62.9          236 
 62.92         261 
 62.94         253 
 62.96         251 
 62.98         258 
 63            252 
 63.02         266 
 63.04         279 
 63.06         256 
 63.08         270 
 63.1          293 
 63.12         292 
 63.14         325 
 63.16         376 
 63.18         364 
 63.2          417 
 63.22         443 
 63.24         503 
 63.26         528 
 63.28         525 
 63.3          559 
 63.32         514 
 63.34         527 
 63.36         521 
 63.38         471 
 63.4          525 
 63.42         445 
 63.44         446 
 63.46         443 
 63.48         371 
 63.5          416 
 63.52         389 
 63.54         318 
 63.56         317 
 63.58         323 
 63.6          263 
 63.62         263 
 63.64         249 
 63.66         227 
 63.68         215 
 63.7          239 
 63.72         215 
 63.74         222 
 63.76         220 
 63.78         212 
 63.8          213 
 63.82         205 
 63.84         212 
 63.86         210 
 63.88         219 
 63.9          211 
 63.92         191 
 63.94         203 
 63.96         232 
 63.98         233 
 64            234 
 64.02         225 
 64.04         210 
 64.06         247 
 64.08         223 
 64.1          226 
 64.12         217 
 64.14         220 
 64.16         216 
 64.18         243 
 64.2          238 
 64.22         235 
 64.24         216 
 64.26         235 
 64.28         215 
 64.3          219 
 64.32         218 
 64.34         239 
 64.36         229 
 64.38         236 
 64.4          213 
 64.42         209 
 64.44         228 
 64.46         237 
 64.48         231 
 64.5          253 
 64.52         249 
 64.54         221 
 64.56         249 
 64.58         248 
 64.6          251 
 64.62         259 
 64.64         279 
 64.66         262 
 64.68         272 
 64.7          266 
 64.72         286 
 64.74         337 
 64.76         299 
 64.78         323 
 64.8          307 
 64.82         321 
 64.84         356 
 64.86         380 
 64.88         369 
 64.9          418 
 64.92         412 
 64.94         448 
 64.96         459 
 64.98         460 
 65            515 
 65.02         543 
 65.04         543 
 65.06         546 
 65.08         493 
 65.1          543 
 65.12         492 
 65.14         521 
 65.16         569 
 65.18         508 
 65.2          615 
 65.22         570 
 65.24         642 
 65.26         657 
 65.28         713 
 65.3          719 
 65.32         805 
 65.34         850 
 65.36         900 
 65.38         944 
 65.4          886 
 65.42         903 
 65.44         873 
 65.46         883 
 65.48         833 
 65.5          907 
 65.52         923 
 65.54         984 
 65.56         1006 
 65.58         1086 
 65.6          1059 
 65.62         1121 
 65.64         1053 
 65.66         983 
 65.68         891 
 65.7          884 
 65.72         824 
 65.74         957 
 65.76         855 
 65.78         864 
 65.8          844 
 65.82         767 
 65.84         735 
 65.86         655 
 65.88         635 
 65.9          642 
 65.92         567 
 65.94         564 
 65.96         564 
 65.98         516 
 66            557 
 66.02         553 
 66.04         509 
 66.06         488 
 66.08         495 
 66.1          518 
 66.12         449 
 66.14         435 
 66.16         434 
 66.18         400 
 66.2          376 
 66.22         356 
 66.24         366 
 66.26         310 
 66.28         328 
 66.3          271 
 66.32         274 
 66.34         266 
 66.36         290 
 66.38         242 
 66.4          212 
 66.42         288 
 66.44         237 
 66.46         243 
 66.48         249 
 66.5          234 
 66.52         233 
 66.54         235 
 66.56         226 
 66.58         226 
 66.6          224 
 66.62         223 
 66.64         219 
 66.66         200 
 66.68         228 
 66.7          228 
 66.72         248 
 66.74         247 
 66.76         248 
 66.78         251 
 66.8          245 
 66.82         245 
 66.84         244 
 66.86         233 
 66.88         278 
 66.9          282 
 66.92         280 
 66.94         310 
 66.96         317 
 66.98         348 
 67            334 
 67.02         352 
 67.04         305 
 67.06         319 
 67.08         361 
 67.1          280 
 67.12         297 
 67.14         319 
 67.16         297 
 67.18         310 
 67.2          288 
 67.22         307 
 67.24         282 
 67.26         283 
 67.28         274 
 67.3          309 
 67.32         263 
 67.34         312 
 67.36         254 
 67.38         279 
 67.4          287 
 67.42         254 
 67.44         246 
 67.46         278 
 67.48         284 
 67.5          290 
 67.52         273 
 67.54         294 
 67.56         336 
 67.58         385 
 67.6          352 
 67.62         399 
 67.64         444 
 67.66         475 
 67.68         501 
 67.7          469 
 67.72         534 
 67.74         540 
 67.76         617 
 67.78         645 
 67.8          662 
 67.82         740 
 67.84         771 
 67.86         839 
 67.88         787 
 67.9          781 
 67.92         724 
 67.94         717 
 67.96         663 
 67.98         650 
 68            656 
 68.02         596 
 68.04         591 
 68.06         556 
 68.08         484 
 68.1          476 
 68.12         497 
 68.14         430 
 68.16         392 
 68.18         320 
 68.2          325 
 68.22         323 
 68.24         297 
 68.26         310 
 68.28         288 
 68.3          215 
 68.32         266 
 68.34         232 
 68.36         207 
 68.38         223 
 68.4          249 
 68.42         192 
 68.44         206 
 68.46         210 
 68.48         224 
 68.5          205 
 68.52         188 
 68.54         224 
 68.56         196 
 68.58         191 
 68.6          210 
 68.62         217 
 68.64         210 
 68.66         201 
 68.68         213 
 68.7          212 
 68.72         182 
 68.74         227 
 68.76         192 
 68.78         219 
 68.8          242 
 68.82         242 
 68.84         229 
 68.86         224 
 68.88         275 
 68.9          259 
 68.92         269 
 68.94         244 
 68.96         291 
 68.98         297 
 69            294 
 69.02         357 
 69.04         326 
 69.06         327 
 69.08         346 
 69.1          330 
 69.12         357 
 69.14         372 
 69.16         393 
 69.18         442 
 69.2          411 
 69.22         442 
 69.24         421 
 69.26         418 
 69.28         459 
 69.3          493 
 69.32         463 
 69.34         522 
 69.36         502 
 69.38         479 
 69.4          445 
 69.42         457 
 69.44         425 
 69.46         465 
 69.48         391 
 69.5          469 
 69.52         446 
 69.54         499 
 69.56         477 
 69.58         484 
 69.6          492 
 69.62         531 
 69.64         549 
 69.66         535 
 69.68         512 
 69.7          478 
 69.72         434 
 69.74         426 
 69.76         425 
 69.78         412 
 69.8          408 
 69.82         412 
 69.84         369 
 69.86         397 
 69.88         370 
 69.9          369 
 69.92         361 
 69.94         359 
 69.96         362 
 69.98         326 
 70            324 
 70.02         339 
 70.04         337 
 70.06         352 
 70.08         343 
 70.1          303 
 70.12         285 
 70.14         269 
 70.16         258 
 70.18         292 
 70.2          271 
 70.22         227 
 70.24         287 
 70.26         240 
 70.28         251 
 70.3          241 
 70.32         204 
 70.34         221 
 70.36         200 
 70.38         204 
 70.4          194 
 70.42         206 
 70.44         203 
 70.46         205 
 70.48         180 
 70.5          203 
 70.52         207 
 70.54         188 
 70.56         195 
 70.58         201 
 70.6          193 
 70.62         193 
 70.64         182 
 70.66         192 
 70.68         187 
 70.7          186 
 70.72         185 
 70.74         168 
 70.76         185 
 70.78         181 
 70.8          178 
 70.82         188 
 70.84         181 
 70.86         206 
 70.88         178 
 70.9          184 
 70.92         186 
 70.94         175 
 70.96         171 
 70.98         161 
 71            158 
 71.02         200 
 71.04         172 
 71.06         184 
 71.08         178 
 71.1          172 
 71.12         189 
 71.14         189 
 71.16         198 
 71.18         159 
 71.2          181 
 71.22         179 
 71.24         184 
 71.26         202 
 71.28         180 
 71.3          201 
 71.32         144 
 71.34         208 
 71.36         204 
 71.38         207 
 71.4          218 
 71.42         192 
 71.44         232 
 71.46         253 
 71.48         259 
 71.5          248 
 71.52         305 
 71.54         313 
 71.56         316 
 71.58         362 
 71.6          336 
 71.62         352 
 71.64         338 
 71.66         359 
 71.68         331 
 71.7          320 
 71.72         329 
 71.74         311 
 71.76         301 
 71.78         311 
 71.8          268 
 71.82         291 
 71.84         300 
 71.86         292 
 71.88         323 
 71.9          298 
 71.92         285 
 71.94         304 
 71.96         313 
 71.98         349 
 72            402 
 72.02         414 
 72.04         424 
 72.06         403 
 72.08         461 
 72.1          444 
 72.12         401 
 72.14         410 
 72.16         366 
 72.18         355 
 72.2          371 
 72.22         338 
 72.24         354 
 72.26         360 
 72.28         349 
 72.3          344 
 72.32         299 
 72.34         286 
 72.36         302 
 72.38         246 
 72.4          246 
 72.42         242 
 72.44         233 
 72.46         228 
 72.48         225 
 72.5          210 
 72.52         220 
 72.54         207 
 72.56         190 
 72.58         222 
 72.6          201 
 72.62         231 
 72.64         203 
 72.66         240 
 72.68         234 
 72.7          235 
 72.72         264 
 72.74         287 
 72.76         277 
 72.78         292 
 72.8          315 
 72.82         311 
 72.84         306 
 72.86         306 
 72.88         338 
 72.9          342 
 72.92         358 
 72.94         329 
 72.96         317 
 72.98         304 
 73            327 
 73.02         276 
 73.04         312 
 73.06         293 
 73.08         312 
 73.1          280 
 73.12         302 
 73.14         272 
 73.16         274 
 73.18         302 
 73.2          298 
 73.22         294 
 73.24         281 
 73.26         326 
 73.28         354 
 73.3          346 
 73.32         311 
 73.34         380 
 73.36         417 
 73.38         418 
 73.4          452 
 73.42         477 
 73.44         452 
 73.46         534 
 73.48         538 
 73.5          543 
 73.52         582 
 73.54         590 
 73.56         608 
 73.58         611 
 73.6          610 
 73.62         640 
 73.64         572 
 73.66         594 
 73.68         590 
 73.7          627 
 73.72         601 
 73.74         618 
 73.76         545 
 73.78         613 
 73.8          592 
 73.82         604 
 73.84         533 
 73.86         510 
 73.88         535 
 73.9          493 
 73.92         488 
 73.93999      436 
 73.96         396 
 73.98         361 
 74            396 
 74.02         398 
 74.04         339 
 74.06         332 
 74.08         296 
 74.1          328 
 74.12         301 
 74.14         293 
 74.16         244 
 74.18         242 
 74.2          233 
 74.22         227 
 74.24         189 
 74.26         184 
 74.28         207 
 74.3          193 
 74.32         223 
 74.34         186 
 74.36         183 
 74.38         202 
 74.4          168 
 74.42         167 
 74.43999      159 
 74.46         197 
 74.48         165 
 74.5          197 
 74.52         199 
 74.54         193 
 74.56         187 
 74.58         172 
 74.6          204 
 74.62         174 
 74.64         176 
 74.66         193 
 74.68         177 
 74.7          182 
 74.72         196 
 74.74         177 
 74.76         191 
 74.78         203 
 74.8          205 
 74.82         207 
 74.84         181 
 74.86         192 
 74.88         202 
 74.9          216 
 74.92         184 
 74.93999      205 
 74.96         205 
 74.98         211 
 75            215 
