LAGP_3  Original Data
 3151 
 12            349 
 12.02         378 
 12.04         344 
 12.06         397 
 12.08         322 
 12.1          347 
 12.12         312 
 12.14         373 
 12.16         351 
 12.18         345 
 12.2          341 
 12.22         343 
 12.24         356 
 12.26         344 
 12.28         362 
 12.3          317 
 12.32         361 
 12.34         341 
 12.36         370 
 12.38         328 
 12.4          353 
 12.42         327 
 12.44         345 
 12.46         334 
 12.48         341 
 12.5          326 
 12.52         345 
 12.54         363 
 12.56         344 
 12.58         324 
 12.6          342 
 12.62         343 
 12.64         312 
 12.66         354 
 12.68         292 
 12.7          349 
 12.72         305 
 12.74         341 
 12.76         306 
 12.78         370 
 12.8          296 
 12.82         307 
 12.84         345 
 12.86         325 
 12.88         344 
 12.9          328 
 12.92         312 
 12.94         318 
 12.96         335 
 12.98         297 
 13            322 
 13.02         308 
 13.04         358 
 13.06         330 
 13.08         322 
 13.1          312 
 13.12         336 
 13.14         339 
 13.16         325 
 13.18         334 
 13.2          316 
 13.22         314 
 13.24         322 
 13.26         355 
 13.28         344 
 13.3          348 
 13.32         341 
 13.34         338 
 13.36         373 
 13.38         386 
 13.4          405 
 13.42         402 
 13.44         414 
 13.46         426 
 13.48         467 
 13.5          466 
 13.52         545 
 13.54         526 
 13.56         520 
 13.58         537 
 13.6          542 
 13.62         423 
 13.64         431 
 13.66         342 
 13.68         290 
 13.7          282 
 13.72         289 
 13.74         271 
 13.76         282 
 13.78         273 
 13.8          263 
 13.82         246 
 13.84         234 
 13.86         276 
 13.88         248 
 13.9          252 
 13.92         260 
 13.94         241 
 13.96         212 
 13.98         245 
 14            249 
 14.02         257 
 14.04         208 
 14.06         259 
 14.08         247 
 14.1          217 
 14.12         216 
 14.14         236 
 14.16         227 
 14.18         231 
 14.2          238 
 14.22         234 
 14.24         235 
 14.26         226 
 14.28         254 
 14.3          232 
 14.32         246 
 14.34         218 
 14.36         222 
 14.38         244 
 14.4          255 
 14.42         253 
 14.44         261 
 14.46         284 
 14.48         280 
 14.5          312 
 14.52         300 
 14.54         333 
 14.56         336 
 14.58         343 
 14.6          439 
 14.62         450 
 14.64         506 
 14.66         559 
 14.68         540 
 14.7          638 
 14.72         669 
 14.74         714 
 14.76         814 
 14.78         883 
 14.8          1008 
 14.82         1112 
 14.84         1345 
 14.86         1482 
 14.88         1815 
 14.9          1969 
 14.92         2366 
 14.94         2947 
 14.96         3486 
 14.98         4088 
 15            4538 
 15.02         5008 
 15.04         4947 
 15.06         4400 
 15.08         3558 
 15.1          2518 
 15.12         1557 
 15.14         954 
 15.16         631 
 15.18         451 
 15.2          353 
 15.22         294 
 15.24         266 
 15.26         253 
 15.28         260 
 15.3          269 
 15.32         260 
 15.34         229 
 15.36         215 
 15.38         216 
 15.4          218 
 15.42         218 
 15.44         210 
 15.46         188 
 15.48         217 
 15.5          228 
 15.52         199 
 15.54         210 
 15.56         187 
 15.58         208 
 15.6          192 
 15.62         198 
 15.64         191 
 15.66         180 
 15.68         185 
 15.7          192 
 15.72         171 
 15.74         179 
 15.76         194 
 15.78         190 
 15.8          177 
 15.82         174 
 15.84         178 
 15.86         185 
 15.88         160 
 15.9          168 
 15.92         178 
 15.94         156 
 15.96         183 
 15.98         172 
 16            171 
 16.02         162 
 16.04         186 
 16.06         188 
 16.08         170 
 16.1          177 
 16.12         181 
 16.14         176 
 16.16         175 
 16.18         179 
 16.2          168 
 16.22         144 
 16.24         157 
 16.26         184 
 16.28         195 
 16.3          164 
 16.32         175 
 16.34         183 
 16.36         174 
 16.38         181 
 16.4          156 
 16.42         143 
 16.44         190 
 16.46         170 
 16.48         169 
 16.5          153 
 16.52         154 
 16.54         168 
 16.56         160 
 16.58         138 
 16.6          163 
 16.62         183 
 16.64         167 
 16.66         175 
 16.68         144 
 16.7          165 
 16.72         175 
 16.74         200 
 16.76         172 
 16.78         163 
 16.8          172 
 16.82         177 
 16.84         181 
 16.86         197 
 16.88         183 
 16.9          201 
 16.92         215 
 16.94         228 
 16.96         220 
 16.98         222 
 17            249 
 17.02         237 
 17.04         285 
 17.06         269 
 17.08         308 
 17.1          336 
 17.12         342 
 17.14         374 
 17.16         453 
 17.18         511 
 17.2          582 
 17.22         588 
 17.24         705 
 17.26         792 
 17.28         877 
 17.3          973 
 17.32         1031 
 17.34         1024 
 17.36         903 
 17.38         828 
 17.4          636 
 17.42         487 
 17.44         416 
 17.46         341 
 17.48         323 
 17.5          307 
 17.52         235 
 17.54         242 
 17.56         235 
 17.58         253 
 17.6          252 
 17.62         242 
 17.64         226 
 17.66         248 
 17.68         227 
 17.7          226 
 17.72         273 
 17.74         236 
 17.76         257 
 17.78         234 
 17.8          245 
 17.82         238 
 17.84         205 
 17.86         235 
 17.88         225 
 17.9          205 
 17.92         220 
 17.94         200 
 17.96         228 
 17.98         209 
 18            245 
 18.02         267 
 18.04         248 
 18.06         320 
 18.08         321 
 18.1          330 
 18.12         335 
 18.14         385 
 18.16         454 
 18.18         480 
 18.2          556 
 18.22         605 
 18.24         610 
 18.26         638 
 18.28         542 
 18.3          512 
 18.32         405 
 18.34         362 
 18.36         307 
 18.38         241 
 18.4          192 
 18.42         181 
 18.44         173 
 18.46         177 
 18.48         148 
 18.5          178 
 18.52         167 
 18.54         176 
 18.56         187 
 18.58         152 
 18.6          152 
 18.62         137 
 18.64         145 
 18.66         133 
 18.68         151 
 18.7          139 
 18.72         173 
 18.74         145 
 18.76         135 
 18.78         145 
 18.8          137 
 18.82         165 
 18.84         142 
 18.86         134 
 18.88         151 
 18.9          142 
 18.92         135 
 18.94         145 
 18.96         133 
 18.98         158 
 19            152 
 19.02         136 
 19.04         137 
 19.06         154 
 19.08         146 
 19.1          130 
 19.12         138 
 19.14         148 
 19.16         140 
 19.18         137 
 19.2          169 
 19.22         140 
 19.24         138 
 19.26         137 
 19.28         146 
 19.3          125 
 19.32         140 
 19.34         140 
 19.36         146 
 19.38         146 
 19.4          176 
 19.42         158 
 19.44         129 
 19.46         123 
 19.48         149 
 19.5          163 
 19.52         140 
 19.54         150 
 19.56         138 
 19.58         159 
 19.6          149 
 19.62         146 
 19.64         159 
 19.66         145 
 19.68         175 
 19.7          168 
 19.72         170 
 19.74         160 
 19.76         183 
 19.78         175 
 19.8          150 
 19.82         140 
 19.84         143 
 19.86         134 
 19.88         147 
 19.9          152 
 19.92         147 
 19.94         135 
 19.96         147 
 19.98         145 
 20            164 
 20.02         165 
 20.04         161 
 20.06         153 
 20.08         153 
 20.1          140 
 20.12         152 
 20.14         158 
 20.16         159 
 20.18         166 
 20.2          182 
 20.22         180 
 20.24         174 
 20.26         181 
 20.28         195 
 20.3          204 
 20.32         219 
 20.34         208 
 20.36         239 
 20.38         227 
 20.4          238 
 20.42         233 
 20.44         241 
 20.46         224 
 20.48         241 
 20.5          232 
 20.52         216 
 20.54         229 
 20.56         225 
 20.58         205 
 20.6          208 
 20.62         241 
 20.64         270 
 20.66         244 
 20.68         239 
 20.7          271 
 20.72         322 
 20.74         335 
 20.76         374 
 20.78         395 
 20.8          457 
 20.82         538 
 20.84         585 
 20.86         671 
 20.88         727 
 20.9          838 
 20.92         945 
 20.94         1200 
 20.96         1354 
 20.98         1580 
 21            1941 
 21.02         2178 
 21.04         2817 
 21.06         3114 
 21.08         3877 
 21.1          4827 
 21.12         5736 
 21.14         7046 
 21.16         8680 
 21.18         10810 
 21.2          12512 
 21.22         14306 
 21.24         15286 
 21.26         15515 
 21.28         15448 
 21.3          14101 
 21.32         12728 
 21.34         11044 
 21.36         10459 
 21.38         10286 
 21.4          10623 
 21.42         10943 
 21.44         10796 
 21.46         10096 
 21.48         8832 
 21.5          7229 
 21.52         5453 
 21.54         3900 
 21.56         2635 
 21.58         1855 
 21.6          1272 
 21.62         958 
 21.64         831 
 21.66         725 
 21.68         647 
 21.7          637 
 21.72         577 
 21.74         547 
 21.76         531 
 21.78         458 
 21.8          443 
 21.82         362 
 21.84         351 
 21.86         294 
 21.88         242 
 21.9          215 
 21.92         226 
 21.94         224 
 21.96         202 
 21.98         212 
 22            197 
 22.02         228 
 22.04         216 
 22.06         222 
 22.08         187 
 22.1          233 
 22.12         187 
 22.14         199 
 22.16         182 
 22.18         178 
 22.2          172 
 22.22         169 
 22.24         163 
 22.26         168 
 22.28         162 
 22.3          139 
 22.32         171 
 22.34         204 
 22.36         149 
 22.38         154 
 22.4          174 
 22.42         161 
 22.44         148 
 22.46         147 
 22.48         134 
 22.5          158 
 22.52         154 
 22.54         142 
 22.56         141 
 22.58         147 
 22.6          154 
 22.62         145 
 22.64         147 
 22.66         144 
 22.68         160 
 22.7          166 
 22.72         165 
 22.74         143 
 22.76         169 
 22.78         137 
 22.8          144 
 22.82         153 
 22.84         146 
 22.86         157 
 22.88         140 
 22.9          159 
 22.92         154 
 22.94         166 
 22.96         162 
 22.98         161 
 23            173 
 23.02         188 
 23.04         159 
 23.06         182 
 23.08         199 
 23.1          191 
 23.12         216 
 23.14         233 
 23.16         222 
 23.18         272 
 23.2          304 
 23.22         338 
 23.24         369 
 23.26         404 
 23.28         410 
 23.3          413 
 23.32         339 
 23.34         338 
 23.36         315 
 23.38         314 
 23.4          262 
 23.42         232 
 23.44         242 
 23.46         252 
 23.48         238 
 23.5          252 
 23.52         281 
 23.54         308 
 23.56         336 
 23.58         361 
 23.6          365 
 23.62         408 
 23.64         438 
 23.66         396 
 23.68         363 
 23.7          341 
 23.72         295 
 23.74         283 
 23.76         219 
 23.78         209 
 23.8          196 
 23.82         211 
 23.84         230 
 23.86         205 
 23.88         233 
 23.9          243 
 23.92         256 
 23.94         251 
 23.96         310 
 23.98         312 
 24            373 
 24.02         409 
 24.04         490 
 24.06         472 
 24.08         519 
 24.1          538 
 24.12         467 
 24.14         472 
 24.16         366 
 24.18         295 
 24.2          292 
 24.22         237 
 24.24         188 
 24.26         168 
 24.28         159 
 24.3          153 
 24.32         172 
 24.34         141 
 24.36         130 
 24.38         139 
 24.4          162 
 24.42         145 
 24.44         162 
 24.46         165 
 24.48         159 
 24.5          197 
 24.52         196 
 24.54         221 
 24.56         218 
 24.58         237 
 24.6          280 
 24.62         275 
 24.64         352 
 24.66         399 
 24.68         415 
 24.7          422 
 24.72         522 
 24.74         624 
 24.76         678 
 24.78         793 
 24.8          947 
 24.82         1129 
 24.84         1284 
 24.86         1479 
 24.88         1788 
 24.9          2215 
 24.92         2695 
 24.94         3467 
 24.96         4349 
 24.98         5491 
 25            6931 
 25.02         9004 
 25.04         11310 
 25.06         13703 
 25.08         16044 
 25.1          17564 
 25.12         17881 
 25.14         16809 
 25.16         14725 
 25.18         11682 
 25.2          8585 
 25.22         5926 
 25.24         3811 
 25.26         2517 
 25.28         1527 
 25.3          1089 
 25.32         849 
 25.34         639 
 25.36         592 
 25.38         453 
 25.4          465 
 25.42         358 
 25.44         316 
 25.46         328 
 25.48         291 
 25.5          287 
 25.52         282 
 25.54         247 
 25.56         253 
 25.58         269 
 25.6          229 
 25.62         248 
 25.64         261 
 25.66         265 
 25.68         285 
 25.7          262 
 25.72         322 
 25.74         348 
 25.76         350 
 25.78         398 
 25.8          426 
 25.82         426 
 25.84         436 
 25.86         458 
 25.88         531 
 25.9          551 
 25.92         513 
 25.94         585 
 25.96         612 
 25.98         562 
 26            611 
 26.02         619 
 26.04         560 
 26.06         545 
 26.08         500 
 26.1          484 
 26.12         380 
 26.14         450 
 26.16         405 
 26.18         384 
 26.2          404 
 26.22         396 
 26.24         371 
 26.26         391 
 26.28         333 
 26.3          337 
 26.32         324 
 26.34         301 
 26.36         269 
 26.38         235 
 26.4          210 
 26.42         192 
 26.44         185 
 26.46         175 
 26.48         156 
 26.5          147 
 26.52         159 
 26.54         163 
 26.56         163 
 26.58         160 
 26.6          150 
 26.62         181 
 26.64         173 
 26.66         167 
 26.68         155 
 26.7          168 
 26.72         154 
 26.74         182 
 26.76         167 
 26.78         170 
 26.8          206 
 26.82         193 
 26.84         193 
 26.86         190 
 26.88         212 
 26.9          229 
 26.92         282 
 26.94         294 
 26.96         322 
 26.98         337 
 27            380 
 27.02         324 
 27.04         381 
 27.06         367 
 27.08         356 
 27.1          305 
 27.12         268 
 27.14         272 
 27.16         227 
 27.18         212 
 27.2          156 
 27.22         163 
 27.24         149 
 27.26         138 
 27.28         152 
 27.3          141 
 27.32         165 
 27.34         134 
 27.36         132 
 27.38         149 
 27.4          141 
 27.42         181 
 27.44         151 
 27.46         169 
 27.48         168 
 27.5          155 
 27.52         152 
 27.54         150 
 27.56         136 
 27.58         122 
 27.6          129 
 27.62         139 
 27.64         135 
 27.66         121 
 27.68         124 
 27.7          124 
 27.72         122 
 27.74         130 
 27.76         113 
 27.78         137 
 27.8          148 
 27.82         146 
 27.84         148 
 27.86         154 
 27.88         154 
 27.9          141 
 27.92         140 
 27.94         131 
 27.96         162 
 27.98         135 
 28            154 
 28.02         154 
 28.04         119 
 28.06         141 
 28.08         139 
 28.1          138 
 28.12         126 
 28.14         143 
 28.16         138 
 28.18         148 
 28.2          128 
 28.22         142 
 28.24         121 
 28.26         139 
 28.28         101 
 28.3          144 
 28.32         103 
 28.34         148 
 28.36         153 
 28.38         151 
 28.4          163 
 28.42         170 
 28.44         191 
 28.46         202 
 28.48         214 
 28.5          242 
 28.52         222 
 28.54         243 
 28.56         226 
 28.58         235 
 28.6          220 
 28.62         197 
 28.64         199 
 28.66         162 
 28.68         148 
 28.7          129 
 28.72         141 
 28.74         108 
 28.76         141 
 28.78         133 
 28.8          108 
 28.82         91 
 28.84         142 
 28.86         113 
 28.88         127 
 28.9          130 
 28.92         106 
 28.94         128 
 28.96         100 
 28.98         145 
 29            132 
 29.02         165 
 29.04         149 
 29.06         147 
 29.08         161 
 29.1          195 
 29.12         234 
 29.14         213 
 29.16         234 
 29.18         255 
 29.2          252 
 29.22         259 
 29.24         264 
 29.26         242 
 29.28         243 
 29.3          261 
 29.32         240 
 29.34         261 
 29.36         199 
 29.38         180 
 29.4          194 
 29.42         169 
 29.44         146 
 29.46         163 
 29.48         132 
 29.5          149 
 29.52         127 
 29.54         145 
 29.56         144 
 29.58         123 
 29.6          138 
 29.62         124 
 29.64         151 
 29.66         134 
 29.68         142 
 29.7          155 
 29.72         150 
 29.74         187 
 29.76         171 
 29.78         169 
 29.8          189 
 29.82         191 
 29.84         184 
 29.86         205 
 29.88         228 
 29.9          210 
 29.92         227 
 29.94         263 
 29.96         297 
 29.98         296 
 30            319 
 30.02         370 
 30.04         375 
 30.06         417 
 30.08         474 
 30.1          597 
 30.12         717 
 30.14         805 
 30.16         1000 
 30.18         1194 
 30.2          1579 
 30.22         1928 
 30.24         2576 
 30.26         3358 
 30.28         4362 
 30.3          5534 
 30.32         6824 
 30.34         8196 
 30.36         9429 
 30.38         10245 
 30.4          10325 
 30.42         9883 
 30.44         8635 
 30.46         7276 
 30.48         5729 
 30.5          4477 
 30.52         3368 
 30.54         2418 
 30.56         1780 
 30.58         1306 
 30.6          1019 
 30.62         770 
 30.64         665 
 30.66         593 
 30.68         483 
 30.7          452 
 30.72         421 
 30.74         326 
 30.76         329 
 30.78         276 
 30.8          251 
 30.82         269 
 30.84         203 
 30.86         206 
 30.88         232 
 30.9          193 
 30.92         216 
 30.94         224 
 30.96         193 
 30.98         197 
 31            172 
 31.02         173 
 31.04         164 
 31.06         193 
 31.08         210 
 31.1          185 
 31.12         193 
 31.14         186 
 31.16         197 
 31.18         177 
 31.2          205 
 31.22         217 
 31.24         235 
 31.26         266 
 31.28         295 
 31.3          297 
 31.32         339 
 31.34         346 
 31.36         372 
 31.38         363 
 31.4          387 
 31.42         365 
 31.44         354 
 31.46         325 
 31.48         282 
 31.5          267 
 31.52         232 
 31.54         173 
 31.56         206 
 31.58         202 
 31.6          204 
 31.62         171 
 31.64         213 
 31.66         218 
 31.68         246 
 31.7          264 
 31.72         275 
 31.74         297 
 31.76         297 
 31.78         299 
 31.8          295 
 31.82         305 
 31.84         247 
 31.86         233 
 31.88         187 
 31.9          154 
 31.92         140 
 31.94         98 
 31.96         130 
 31.98         141 
 32            101 
 32.02         86 
 32.04         102 
 32.06         104 
 32.08         106 
 32.1          106 
 32.12         91 
 32.14         100 
 32.16         105 
 32.18         94 
 32.2          102 
 32.22         102 
 32.24         112 
 32.26         87 
 32.28         99 
 32.3          113 
 32.32         85 
 32.34         110 
 32.36         82 
 32.38         96 
 32.4          102 
 32.42         91 
 32.44         100 
 32.46         95 
 32.48         110 
 32.5          92 
 32.52         99 
 32.54         103 
 32.56         104 
 32.58         91 
 32.6          95 
 32.62         120 
 32.64         116 
 32.66         94 
 32.68         110 
 32.7          92 
 32.72         92 
 32.74         115 
 32.76         102 
 32.78         98 
 32.8          123 
 32.82         111 
 32.84         131 
 32.86         144 
 32.88         136 
 32.9          138 
 32.92         132 
 32.94         140 
 32.96         196 
 32.98         190 
 33            211 
 33.02         204 
 33.04         222 
 33.06         309 
 33.08         313 
 33.1          321 
 33.12         417 
 33.14         490 
 33.16         629 
 33.18         779 
 33.2          1031 
 33.22         1285 
 33.24         1554 
 33.26         2004 
 33.28         2279 
 33.3          2720 
 33.32         2813 
 33.34         2850 
 33.36         2881 
 33.38         2661 
 33.4          2401 
 33.42         1971 
 33.44         1658 
 33.46         1293 
 33.48         940 
 33.5          767 
 33.52         649 
 33.54         471 
 33.56         416 
 33.58         368 
 33.6          367 
 33.62         358 
 33.64         401 
 33.66         407 
 33.68         437 
 33.7          514 
 33.72         570 
 33.74         732 
 33.76         944 
 33.78         1235 
 33.8          1560 
 33.82         1911 
 33.84         2422 
 33.86         2988 
 33.88         3807 
 33.9          4579 
 33.92         5185 
 33.94         5734 
 33.96         5951 
 33.98         5796 
 34            5457 
 34.02         4870 
 34.04         4245 
 34.06         3452 
 34.08         2727 
 34.1          2090 
 34.12         1544 
 34.14         1111 
 34.16         772 
 34.18         564 
 34.2          467 
 34.22         335 
 34.24         318 
 34.26         250 
 34.28         255 
 34.3          237 
 34.32         179 
 34.34         200 
 34.36         176 
 34.38         157 
 34.4          174 
 34.42         138 
 34.44         132 
 34.46         163 
 34.48         150 
 34.5          137 
 34.52         147 
 34.54         127 
 34.56         127 
 34.58         115 
 34.6          136 
 34.62         123 
 34.64         122 
 34.66         92 
 34.68         113 
 34.7          114 
 34.72         118 
 34.74         115 
 34.76         101 
 34.78         116 
 34.8          104 
 34.82         108 
 34.84         121 
 34.86         117 
 34.88         118 
 34.9          112 
 34.92         102 
 34.94         122 
 34.96         103 
 34.98         122 
 35            118 
 35.02         107 
 35.04         149 
 35.06         123 
 35.08         100 
 35.1          127 
 35.12         132 
 35.14         140 
 35.16         126 
 35.18         117 
 35.2          117 
 35.22         115 
 35.24         107 
 35.26         125 
 35.28         138 
 35.3          109 
 35.32         118 
 35.34         127 
 35.36         130 
 35.38         124 
 35.4          107 
 35.42         130 
 35.44         110 
 35.46         113 
 35.48         115 
 35.5          106 
 35.52         128 
 35.54         117 
 35.56         136 
 35.58         122 
 35.6          126 
 35.62         121 
 35.64         135 
 35.66         130 
 35.68         135 
 35.7          128 
 35.72         146 
 35.74         141 
 35.76         136 
 35.78         145 
 35.8          127 
 35.82         116 
 35.84         130 
 35.86         118 
 35.88         127 
 35.9          116 
 35.92         128 
 35.94         112 
 35.96         102 
 35.98         112 
 36            105 
 36.02         123 
 36.04         114 
 36.06         105 
 36.08         86 
 36.1          117 
 36.12         97 
 36.14         99 
 36.16         124 
 36.18         85 
 36.2          98 
 36.22         87 
 36.24         78 
 36.26         94 
 36.28         82 
 36.3          97 
 36.32         87 
 36.34         88 
 36.36         83 
 36.38         88 
 36.4          82 
 36.42         89 
 36.44         91 
 36.46         93 
 36.48         99 
 36.5          97 
 36.52         75 
 36.54         90 
 36.56         78 
 36.58         112 
 36.6          88 
 36.62         92 
 36.64         111 
 36.66         87 
 36.68         97 
 36.7          98 
 36.72         100 
 36.74         111 
 36.76         132 
 36.78         126 
 36.8          141 
 36.82         150 
 36.84         158 
 36.86         172 
 36.88         195 
 36.9          186 
 36.92         202 
 36.94         210 
 36.96         238 
 36.98         245 
 37            259 
 37.02         311 
 37.04         266 
 37.06         332 
 37.08         334 
 37.1          320 
 37.12         337 
 37.14         326 
 37.16         329 
 37.18         354 
 37.2          365 
 37.22         382 
 37.24         393 
 37.26         455 
 37.28         453 
 37.3          582 
 37.32         680 
 37.34         763 
 37.36         951 
 37.38         1315 
 37.4          1591 
 37.42         2021 
 37.44         2545 
 37.46         3186 
 37.48         3757 
 37.5          4301 
 37.52         4792 
 37.54         5129 
 37.56         5371 
 37.58         5371 
 37.6          5361 
 37.62         4986 
 37.64         4607 
 37.66         4201 
 37.68         3589 
 37.7          3079 
 37.72         2626 
 37.74         2239 
 37.76         1749 
 37.78         1292 
 37.8          1006 
 37.82         806 
 37.84         639 
 37.86         485 
 37.88         403 
 37.9          332 
 37.92         279 
 37.94         246 
 37.96         263 
 37.98         230 
 38            218 
 38.02         182 
 38.04         157 
 38.06         172 
 38.08         169 
 38.1          154 
 38.12         145 
 38.14         143 
 38.16         138 
 38.18         127 
 38.2          142 
 38.22         144 
 38.24         128 
 38.26         138 
 38.28         115 
 38.3          128 
 38.32         128 
 38.34         119 
 38.36         127 
 38.38         120 
 38.4          128 
 38.42         132 
 38.44         127 
 38.46         107 
 38.48         93 
 38.5          113 
 38.52         125 
 38.54         112 
 38.56         90 
 38.58         106 
 38.6          100 
 38.62         85 
 38.64         95 
 38.66         97 
 38.68         99 
 38.7          93 
 38.72         81 
 38.74         101 
 38.76         99 
 38.78         87 
 38.8          95 
 38.82         102 
 38.84         107 
 38.86         93 
 38.88         76 
 38.9          95 
 38.92         87 
 38.94         89 
 38.96         109 
 38.98         104 
 39            95 
 39.02         112 
 39.04         124 
 39.06         150 
 39.08         154 
 39.1          142 
 39.12         150 
 39.14         144 
 39.16         182 
 39.18         214 
 39.2          217 
 39.22         235 
 39.24         239 
 39.26         221 
 39.28         250 
 39.3          259 
 39.32         219 
 39.34         226 
 39.36         227 
 39.38         185 
 39.4          156 
 39.42         144 
 39.44         163 
 39.46         105 
 39.48         142 
 39.5          105 
 39.52         133 
 39.54         103 
 39.56         107 
 39.58         117 
 39.6          108 
 39.62         124 
 39.64         131 
 39.66         152 
 39.68         136 
 39.7          149 
 39.72         117 
 39.74         143 
 39.76         150 
 39.78         151 
 39.8          167 
 39.82         163 
 39.84         160 
 39.86         177 
 39.88         159 
 39.9          192 
 39.92         169 
 39.94         193 
 39.96         214 
 39.98         170 
 40            196 
 40.02         196 
 40.04         173 
 40.06         198 
 40.08         220 
 40.1          218 
 40.12         216 
 40.14         188 
 40.16         176 
 40.18         161 
 40.2          191 
 40.22         174 
 40.24         175 
 40.26         120 
 40.28         124 
 40.3          95 
 40.32         112 
 40.34         101 
 40.36         100 
 40.38         92 
 40.4          102 
 40.42         87 
 40.44         85 
 40.46         93 
 40.48         81 
 40.5          90 
 40.52         85 
 40.54         80 
 40.56         87 
 40.58         97 
 40.6          73 
 40.62         98 
 40.64         117 
 40.66         99 
 40.68         81 
 40.7          84 
 40.72         101 
 40.74         77 
 40.76         77 
 40.78         104 
 40.8          92 
 40.82         126 
 40.84         106 
 40.86         121 
 40.88         105 
 40.9          114 
 40.92         124 
 40.94         129 
 40.96         97 
 40.98         112 
 41            110 
 41.02         110 
 41.04         95 
 41.06         97 
 41.08         97 
 41.1          87 
 41.12         105 
 41.14         91 
 41.16         86 
 41.18         86 
 41.2          93 
 41.22         86 
 41.24         103 
 41.26         103 
 41.28         93 
 41.3          122 
 41.32         73 
 41.34         109 
 41.36         112 
 41.38         113 
 41.4          96 
 41.42         117 
 41.44         100 
 41.46         98 
 41.48         102 
 41.5          90 
 41.52         103 
 41.54         118 
 41.56         104 
 41.58         100 
 41.6          110 
 41.62         126 
 41.64         100 
 41.66         114 
 41.68         132 
 41.7          131 
 41.72         113 
 41.74         116 
 41.76         118 
 41.78         138 
 41.8          128 
 41.82         121 
 41.84         111 
 41.86         125 
 41.88         113 
 41.9          102 
 41.92         114 
 41.94         112 
 41.96         106 
 41.98         100 
 42            100 
 42.02         110 
 42.04         112 
 42.06         100 
 42.08         94 
 42.1          103 
 42.12         102 
 42.14         88 
 42.16         96 
 42.18         113 
 42.2          96 
 42.22         95 
 42.24         97 
 42.26         93 
 42.28         94 
 42.3          83 
 42.32         94 
 42.34         82 
 42.36         86 
 42.38         106 
 42.4          82 
 42.42         100 
 42.44         88 
 42.46         97 
 42.48         104 
 42.5          99 
 42.52         95 
 42.54         92 
 42.56         91 
 42.58         99 
 42.6          118 
 42.62         115 
 42.64         94 
 42.66         138 
 42.68         133 
 42.7          127 
 42.72         132 
 42.74         130 
 42.76         133 
 42.78         141 
 42.8          155 
 42.82         160 
 42.84         129 
 42.86         123 
 42.88         136 
 42.9          132 
 42.92         133 
 42.94         148 
 42.96         129 
 42.98         121 
 43            122 
 43.02         127 
 43.04         136 
 43.06         147 
 43.08         150 
 43.1          171 
 43.12         171 
 43.14         219 
 43.16         245 
 43.18         271 
 43.2          352 
 43.22         409 
 43.24         463 
 43.26         521 
 43.28         559 
 43.3          583 
 43.32         635 
 43.34         665 
 43.36         697 
 43.38         650 
 43.4          662 
 43.42         583 
 43.44         551 
 43.46         512 
 43.48         409 
 43.5          339 
 43.52         311 
 43.54         255 
 43.56         219 
 43.58         200 
 43.6          181 
 43.62         147 
 43.64         174 
 43.66         149 
 43.68         148 
 43.7          126 
 43.72         152 
 43.74         149 
 43.76         133 
 43.78         138 
 43.8          143 
 43.82         141 
 43.84         147 
 43.86         146 
 43.88         127 
 43.9          145 
 43.92         114 
 43.94         129 
 43.96         121 
 43.98         128 
 44            119 
 44.02         108 
 44.04         126 
 44.06         110 
 44.08         114 
 44.1          101 
 44.12         105 
 44.14         115 
 44.16         117 
 44.18         92 
 44.2          111 
 44.22         113 
 44.24         120 
 44.26         97 
 44.28         136 
 44.3          112 
 44.32         110 
 44.34         114 
 44.36         99 
 44.38         109 
 44.4          94 
 44.42         101 
 44.44         97 
 44.46         90 
 44.48         95 
 44.5          93 
 44.52         85 
 44.54         91 
 44.56         91 
 44.58         78 
 44.6          100 
 44.62         92 
 44.64         79 
 44.66         85 
 44.68         75 
 44.7          100 
 44.72         88 
 44.74         88 
 44.76         84 
 44.78         108 
 44.8          97 
 44.82         80 
 44.84         103 
 44.86         93 
 44.88         84 
 44.9          93 
 44.92         88 
 44.94         124 
 44.96         109 
 44.98         113 
 45            134 
 45.02         129 
 45.04         150 
 45.06         151 
 45.08         169 
 45.1          195 
 45.12         217 
 45.14         223 
 45.16         252 
 45.18         324 
 45.2          349 
 45.22         413 
 45.24         521 
 45.26         588 
 45.28         652 
 45.3          716 
 45.32         736 
 45.34         762 
 45.36         837 
 45.38         856 
 45.4          865 
 45.42         876 
 45.44         840 
 45.46         818 
 45.48         723 
 45.5          730 
 45.52         733 
 45.54         696 
 45.56         659 
 45.58         553 
 45.6          535 
 45.62         554 
 45.64         483 
 45.66         468 
 45.68         563 
 45.7          545 
 45.72         584 
 45.74         645 
 45.76         681 
 45.78         743 
 45.8          717 
 45.82         705 
 45.84         730 
 45.86         745 
 45.88         625 
 45.9          670 
 45.92         643 
 45.94         623 
 45.96         578 
 45.98         506 
 46            453 
 46.02         502 
 46.04         464 
 46.06         403 
 46.08         420 
 46.1          370 
 46.12         315 
 46.14         338 
 46.16         325 
 46.18         281 
 46.2          310 
 46.22         293 
 46.24         291 
 46.26         304 
 46.28         325 
 46.3          322 
 46.32         352 
 46.34         348 
 46.36         396 
 46.38         406 
 46.4          407 
 46.42         396 
 46.44         445 
 46.46         490 
 46.48         476 
 46.5          540 
 46.52         533 
 46.54         472 
 46.56         476 
 46.58         389 
 46.6          405 
 46.62         398 
 46.64         344 
 46.66         302 
 46.68         298 
 46.7          280 
 46.72         272 
 46.74         223 
 46.76         194 
 46.78         172 
 46.8          165 
 46.82         169 
 46.84         178 
 46.86         177 
 46.88         163 
 46.9          122 
 46.92         125 
 46.94         133 
 46.96         145 
 46.98         127 
 47            121 
 47.02         100 
 47.04         114 
 47.06         111 
 47.08         99 
 47.1          119 
 47.12         94 
 47.14         108 
 47.16         105 
 47.18         104 
 47.2          88 
 47.22         92 
 47.24         98 
 47.26         92 
 47.28         92 
 47.3          105 
 47.32         95 
 47.34         88 
 47.36         68 
 47.38         97 
 47.4          101 
 47.42         75 
 47.44         83 
 47.46         88 
 47.48         79 
 47.5          96 
 47.52         93 
 47.54         87 
 47.56         102 
 47.58         93 
 47.6          98 
 47.62         112 
 47.64         105 
 47.66         117 
 47.68         119 
 47.7          118 
 47.72         96 
 47.74         89 
 47.76         101 
 47.78         113 
 47.8          99 
 47.82         116 
 47.84         120 
 47.86         94 
 47.88         104 
 47.9          97 
 47.92         71 
 47.94         89 
 47.96         114 
 47.98         110 
 48            111 
 48.02         103 
 48.04         94 
 48.06         103 
 48.08         112 
 48.1          96 
 48.12         92 
 48.14         96 
 48.16         104 
 48.18         99 
 48.2          114 
 48.22         111 
 48.24         136 
 48.26         139 
 48.28         111 
 48.3          129 
 48.32         122 
 48.34         134 
 48.36         140 
 48.38         140 
 48.4          134 
 48.42         172 
 48.44         150 
 48.46         174 
 48.48         190 
 48.5          201 
 48.52         250 
 48.54         252 
 48.56         277 
 48.58         255 
 48.6          358 
 48.62         407 
 48.64         494 
 48.66         614 
 48.68         734 
 48.7          953 
 48.72         1161 
 48.74         1440 
 48.76         1824 
 48.78         2165 
 48.8          2483 
 48.82         2644 
 48.84         2954 
 48.86         3121 
 48.88         3044 
 48.9          3017 
 48.92         2864 
 48.94         2731 
 48.96         2432 
 48.98         2345 
 49            2243 
 49.02         2145 
 49.04         2081 
 49.06         2077 
 49.08         2120 
 49.1          2038 
 49.12         2027 
 49.14         1959 
 49.16         1788 
 49.18         1576 
 49.2          1534 
 49.22         1468 
 49.24         1255 
 49.26         1080 
 49.28         940 
 49.3          787 
 49.32         701 
 49.34         608 
 49.36         445 
 49.38         406 
 49.4          360 
 49.42         321 
 49.44         225 
 49.46         240 
 49.48         225 
 49.5          210 
 49.52         175 
 49.54         159 
 49.56         153 
 49.58         157 
 49.6          145 
 49.62         135 
 49.64         112 
 49.66         145 
 49.68         125 
 49.7          109 
 49.72         105 
 49.74         123 
 49.76         103 
 49.78         104 
 49.8          109 
 49.82         106 
 49.84         112 
 49.86         131 
 49.88         105 
 49.9          117 
 49.92         130 
 49.94         130 
 49.96         141 
 49.98         126 
 50            125 
 50.02         138 
 50.04         121 
 50.06         137 
 50.08         128 
 50.1          108 
 50.12         112 
 50.14         108 
 50.16         110 
 50.18         101 
 50.2          91 
 50.22         90 
 50.24         106 
 50.26         84 
 50.28         106 
 50.3          90 
 50.32         89 
 50.34         87 
 50.36         72 
 50.38         80 
 50.4          98 
 50.42         81 
 50.44         76 
 50.46         84 
 50.48         94 
 50.5          93 
 50.52         87 
 50.54         100 
 50.56         98 
 50.58         117 
 50.6          102 
 50.62         88 
 50.64         96 
 50.66         108 
 50.68         109 
 50.7          92 
 50.72         102 
 50.74         106 
 50.76         124 
 50.78         123 
 50.8          141 
 50.82         157 
 50.84         162 
 50.86         210 
 50.88         255 
 50.9          300 
 50.92         340 
 50.94         392 
 50.96         444 
 50.98         520 
 51            505 
 51.02         581 
 51.04         583 
 51.06         603 
 51.08         604 
 51.1          624 
 51.12         652 
 51.14         667 
 51.16         633 
 51.18         631 
 51.2          657 
 51.22         652 
 51.24         648 
 51.26         670 
 51.28         665 
 51.3          635 
 51.32         688 
 51.34         658 
 51.36         648 
 51.38         607 
 51.4          665 
 51.42         712 
 51.44         781 
 51.46         948 
 51.48         1077 
 51.5          1317 
 51.52         1470 
 51.54         1838 
 51.56         2101 
 51.58         2144 
 51.6          2272 
 51.62         2296 
 51.64         2220 
 51.66         2159 
 51.68         2248 
 51.7          2104 
 51.72         2026 
 51.74         1902 
 51.76         1823 
 51.78         1623 
 51.8          1359 
 51.82         1226 
 51.84         1110 
 51.86         951 
 51.88         842 
 51.9          636 
 51.92         647 
 51.94         569 
 51.96         486 
 51.98         409 
 52            324 
 52.02         279 
 52.04         229 
 52.06         208 
 52.08         185 
 52.1          172 
 52.12         167 
 52.14         135 
 52.16         143 
 52.18         117 
 52.2          118 
 52.22         103 
 52.24         100 
 52.26         108 
 52.28         111 
 52.3          105 
 52.32         114 
 52.34         119 
 52.36         97 
 52.38         93 
 52.4          98 
 52.42         109 
 52.44         83 
 52.46         111 
 52.48         100 
 52.5          104 
 52.52         93 
 52.54         89 
 52.56         91 
 52.58         109 
 52.6          106 
 52.62         106 
 52.64         96 
 52.66         101 
 52.68         106 
 52.7          115 
 52.72         107 
 52.74         104 
 52.76         113 
 52.78         104 
 52.8          101 
 52.82         94 
 52.84         124 
 52.86         106 
 52.88         124 
 52.9          97 
 52.92         123 
 52.94         97 
 52.96         125 
 52.98         98 
 53            103 
 53.02         99 
 53.04         116 
 53.06         100 
 53.08         103 
 53.1          99 
 53.12         104 
 53.14         113 
 53.16         95 
 53.18         120 
 53.2          113 
 53.22         139 
 53.24         139 
 53.26         119 
 53.28         141 
 53.3          168 
 53.32         176 
 53.34         193 
 53.36         181 
 53.38         181 
 53.4          227 
 53.42         204 
 53.44         226 
 53.46         227 
 53.48         220 
 53.5          247 
 53.52         212 
 53.54         235 
 53.56         246 
 53.58         245 
 53.6          275 
 53.62         216 
 53.64         268 
 53.66         235 
 53.68         225 
 53.7          236 
 53.72         219 
 53.74         216 
 53.76         199 
 53.78         203 
 53.8          183 
 53.82         176 
 53.84         182 
 53.86         181 
 53.88         170 
 53.9          175 
 53.92         147 
 53.94         132 
 53.96         158 
 53.98         141 
 54            132 
 54.02         129 
 54.04         135 
 54.06         121 
 54.08         120 
 54.1          135 
 54.12         126 
 54.14         128 
 54.16         135 
 54.18         121 
 54.2          128 
 54.22         120 
 54.24         134 
 54.26         128 
 54.28         125 
 54.3          118 
 54.32         117 
 54.34         125 
 54.36         113 
 54.38         107 
 54.4          110 
 54.42         95 
 54.44         111 
 54.46         119 
 54.48         108 
 54.5          125 
 54.52         120 
 54.54         101 
 54.56         117 
 54.58         111 
 54.6          112 
 54.62         101 
 54.64         116 
 54.66         125 
 54.68         101 
 54.7          118 
 54.72         115 
 54.74         106 
 54.76         109 
 54.78         110 
 54.8          96 
 54.82         99 
 54.84         92 
 54.86         107 
 54.88         97 
 54.9          92 
 54.92         105 
 54.94         105 
 54.96         79 
 54.98         90 
 55            99 
 55.02         84 
 55.04         95 
 55.06         90 
 55.08         105 
 55.1          96 
 55.12         88 
 55.14         66 
 55.16         86 
 55.18         104 
 55.2          103 
 55.22         100 
 55.24         85 
 55.26         98 
 55.28         104 
 55.3          106 
 55.32         94 
 55.34         103 
 55.36         124 
 55.38         113 
 55.4          108 
 55.42         124 
 55.44         122 
 55.46         140 
 55.48         141 
 55.5          160 
 55.52         160 
 55.54         146 
 55.56         174 
 55.58         139 
 55.6          180 
 55.62         188 
 55.64         193 
 55.66         234 
 55.68         265 
 55.7          338 
 55.72         407 
 55.74         418 
 55.76         529 
 55.78         603 
 55.8          685 
 55.82         795 
 55.84         834 
 55.86         871 
 55.88         803 
 55.9          851 
 55.92         879 
 55.94         854 
 55.96         887 
 55.98         936 
 56            946 
 56.02         988 
 56.04         1087 
 56.06         1184 
 56.08         1250 
 56.1          1348 
 56.12         1395 
 56.14         1558 
 56.16         1559 
 56.18         1637 
 56.2          1607 
 56.22         1567 
 56.24         1556 
 56.26         1469 
 56.28         1408 
 56.3          1286 
 56.32         1218 
 56.34         1108 
 56.36         944 
 56.38         866 
 56.4          711 
 56.42         608 
 56.44         566 
 56.46         503 
 56.48         351 
 56.5          350 
 56.52         293 
 56.54         231 
 56.56         246 
 56.58         232 
 56.6          217 
 56.62         167 
 56.64         201 
 56.66         195 
 56.68         154 
 56.7          183 
 56.72         167 
 56.74         168 
 56.76         160 
 56.78         155 
 56.8          143 
 56.82         158 
 56.84         137 
 56.86         117 
 56.88         121 
 56.9          104 
 56.92         142 
 56.94         124 
 56.96         107 
 56.98         133 
 57            103 
 57.02         105 
 57.04         119 
 57.06         108 
 57.08         91 
 57.1          80 
 57.12         89 
 57.14         100 
 57.16         89 
 57.18         92 
 57.2          93 
 57.22         84 
 57.24         87 
 57.26         96 
 57.28         86 
 57.3          90 
 57.32         84 
 57.34         102 
 57.36         79 
 57.38         87 
 57.4          94 
 57.42         101 
 57.44         72 
 57.46         65 
 57.48         82 
 57.5          70 
 57.52         74 
 57.54         75 
 57.56         75 
 57.58         79 
 57.6          67 
 57.62         90 
 57.64         84 
 57.66         78 
 57.68         87 
 57.7          99 
 57.72         92 
 57.74         68 
 57.76         82 
 57.78         78 
 57.8          86 
 57.82         78 
 57.84         95 
 57.86         108 
 57.88         106 
 57.9          104 
 57.92         102 
 57.94         119 
 57.96         114 
 57.98         138 
 58            119 
 58.02         132 
 58.04         132 
 58.06         193 
 58.08         169 
 58.1          186 
 58.12         207 
 58.14         249 
 58.16         255 
 58.18         279 
 58.2          290 
 58.22         345 
 58.24         335 
 58.26         344 
 58.28         386 
 58.3          416 
 58.32         388 
 58.34         414 
 58.36         449 
 58.38         493 
 58.4          493 
 58.42         459 
 58.44         494 
 58.46         465 
 58.48         507 
 58.5          514 
 58.52         560 
 58.54         532 
 58.56         643 
 58.58         719 
 58.6          805 
 58.62         992 
 58.64         1111 
 58.66         1235 
 58.68         1429 
 58.7          1520 
 58.72         1651 
 58.74         1677 
 58.76         1763 
 58.78         1780 
 58.8          1774 
 58.82         1894 
 58.84         2071 
 58.86         2253 
 58.88         2411 
 58.9          2598 
 58.92         2848 
 58.94         3003 
 58.96         3065 
 58.98         3152 
 59            3141 
 59.02         3102 
 59.04         3042 
 59.06         3071 
 59.08         2909 
 59.1          2854 
 59.12         2620 
 59.14         2353 
 59.16         2151 
 59.18         1945 
 59.2          1730 
 59.22         1519 
 59.24         1354 
 59.26         1192 
 59.28         1047 
 59.3          890 
 59.32         699 
 59.34         665 
 59.36         534 
 59.38         485 
 59.4          397 
 59.42         323 
 59.44         249 
 59.46         251 
 59.48         214 
 59.5          196 
 59.52         201 
 59.54         156 
 59.56         149 
 59.58         153 
 59.6          158 
 59.62         135 
 59.64         154 
 59.66         126 
 59.68         125 
 59.7          141 
 59.72         128 
 59.74         108 
 59.76         128 
 59.78         122 
 59.8          103 
 59.82         124 
 59.84         96 
 59.86         92 
 59.88         118 
 59.9          120 
 59.92         132 
 59.94         96 
 59.96         95 
 59.98         106 
 60            107 
 60.02         112 
 60.04         100 
 60.06         105 
 60.08         108 
 60.1          110 
 60.12         138 
 60.14         142 
 60.16         126 
 60.18         137 
 60.2          153 
 60.22         152 
 60.24         177 
 60.26         177 
 60.28         215 
 60.3          215 
 60.32         222 
 60.34         243 
 60.36         273 
 60.38         281 
 60.4          266 
 60.42         287 
 60.44         311 
 60.46         298 
 60.48         328 
 60.5          337 
 60.52         371 
 60.54         445 
 60.56         469 
 60.58         553 
 60.6          584 
 60.62         674 
 60.64         746 
 60.66         712 
 60.68         786 
 60.7          737 
 60.72         705 
 60.74         714 
 60.76         725 
 60.78         690 
 60.8          618 
 60.82         593 
 60.84         581 
 60.86         550 
 60.88         465 
 60.9          440 
 60.92         348 
 60.94         328 
 60.96         292 
 60.98         281 
 61            241 
 61.02         213 
 61.04         177 
 61.06         177 
 61.08         152 
 61.1          137 
 61.12         120 
 61.14         137 
 61.16         96 
 61.18         108 
 61.2          109 
 61.22         123 
 61.24         108 
 61.26         114 
 61.28         83 
 61.3          113 
 61.32         108 
 61.34         91 
 61.36         99 
 61.38         86 
 61.4          100 
 61.42         102 
 61.44         110 
 61.46         109 
 61.48         101 
 61.5          93 
 61.52         108 
 61.54         105 
 61.56         119 
 61.58         122 
 61.6          127 
 61.62         113 
 61.64         104 
 61.66         115 
 61.68         105 
 61.7          113 
 61.72         99 
 61.74         82 
 61.76         98 
 61.78         88 
 61.8          103 
 61.82         89 
 61.84         94 
 61.86         91 
 61.88         101 
 61.9          91 
 61.92         97 
 61.94         86 
 61.96         84 
 61.98         81 
 62            102 
 62.02         74 
 62.04         74 
 62.06         88 
 62.08         95 
 62.1          82 
 62.12         100 
 62.14         91 
 62.16         98 
 62.18         96 
 62.2          104 
 62.22         90 
 62.24         95 
 62.26         113 
 62.28         95 
 62.3          99 
 62.32         83 
 62.34         101 
 62.36         94 
 62.38         100 
 62.4          111 
 62.42         98 
 62.44         92 
 62.46         87 
 62.48         119 
 62.5          106 
 62.52         103 
 62.54         126 
 62.56         114 
 62.58         117 
 62.6          123 
 62.62         134 
 62.64         119 
 62.66         130 
 62.68         122 
 62.7          140 
 62.72         122 
 62.74         135 
 62.76         146 
 62.78         155 
 62.8          127 
 62.82         161 
 62.84         157 
 62.86         152 
 62.88         140 
 62.9          149 
 62.92         137 
 62.94         171 
 62.96         170 
 62.98         166 
 63            169 
 63.02         178 
 63.04         182 
 63.06         196 
 63.08         230 
 63.1          241 
 63.12         312 
 63.14         346 
 63.16         370 
 63.18         480 
 63.2          565 
 63.22         609 
 63.24         715 
 63.26         784 
 63.28         773 
 63.3          729 
 63.32         676 
 63.34         631 
 63.36         653 
 63.38         591 
 63.4          564 
 63.42         505 
 63.44         480 
 63.46         526 
 63.48         461 
 63.5          430 
 63.52         356 
 63.54         277 
 63.56         246 
 63.58         246 
 63.6          221 
 63.62         181 
 63.64         160 
 63.66         169 
 63.68         139 
 63.7          136 
 63.72         133 
 63.74         122 
 63.76         108 
 63.78         129 
 63.8          98 
 63.82         100 
 63.84         110 
 63.86         96 
 63.88         126 
 63.9          107 
 63.92         99 
 63.94         105 
 63.96         119 
 63.98         109 
 64            107 
 64.02         93 
 64.04         90 
 64.06         108 
 64.08         104 
 64.1          102 
 64.12         99 
 64.14         107 
 64.16         104 
 64.18         107 
 64.2          110 
 64.22         99 
 64.24         124 
 64.26         114 
 64.28         101 
 64.3          109 
 64.32         123 
 64.34         89 
 64.36         106 
 64.38         128 
 64.4          127 
 64.42         128 
 64.44         126 
 64.46         156 
 64.48         136 
 64.5          142 
 64.52         154 
 64.54         177 
 64.56         197 
 64.58         194 
 64.6          204 
 64.62         228 
 64.64         219 
 64.66         244 
 64.68         280 
 64.7          279 
 64.72         270 
 64.74         315 
 64.76         295 
 64.78         323 
 64.8          346 
 64.82         343 
 64.84         335 
 64.86         386 
 64.88         444 
 64.9          415 
 64.92         489 
 64.94         493 
 64.96         530 
 64.98         505 
 65            538 
 65.02         588 
 65.04         558 
 65.06         552 
 65.08         632 
 65.1          584 
 65.12         697 
 65.14         758 
 65.16         756 
 65.18         837 
 65.2          955 
 65.22         1035 
 65.24         1020 
 65.26         1163 
 65.28         1221 
 65.3          1186 
 65.32         1253 
 65.34         1326 
 65.36         1300 
 65.38         1143 
 65.4          1203 
 65.42         1127 
 65.44         1040 
 65.46         1199 
 65.48         1185 
 65.5          1235 
 65.52         1258 
 65.54         1367 
 65.56         1346 
 65.58         1326 
 65.6          1225 
 65.62         1212 
 65.64         1135 
 65.66         1059 
 65.68         977 
 65.7          1019 
 65.72         896 
 65.74         945 
 65.76         781 
 65.78         806 
 65.8          697 
 65.82         680 
 65.84         541 
 65.86         484 
 65.88         430 
 65.9          369 
 65.92         339 
 65.94         306 
 65.96         247 
 65.98         250 
 66            212 
 66.02         207 
 66.04         185 
 66.06         199 
 66.08         200 
 66.1          172 
 66.12         183 
 66.14         173 
 66.16         175 
 66.18         162 
 66.2          204 
 66.22         205 
 66.24         184 
 66.26         190 
 66.28         200 
 66.3          188 
 66.32         185 
 66.34         178 
 66.36         161 
 66.38         179 
 66.4          150 
 66.42         169 
 66.44         148 
 66.46         174 
 66.48         163 
 66.5          160 
 66.52         134 
 66.54         135 
 66.56         127 
 66.58         121 
 66.6          140 
 66.62         101 
 66.64         117 
 66.66         95 
 66.68         110 
 66.7          102 
 66.72         98 
 66.74         96 
 66.76         100 
 66.78         101 
 66.8          95 
 66.82         101 
 66.84         103 
 66.86         98 
 66.88         72 
 66.9          98 
 66.92         86 
 66.94         85 
 66.96         106 
 66.98         91 
 67            94 
 67.02         102 
 67.04         98 
 67.06         88 
 67.08         84 
 67.1          98 
 67.12         88 
 67.14         114 
 67.16         110 
 67.18         109 
 67.2          97 
 67.22         102 
 67.24         110 
 67.26         106 
 67.28         108 
 67.3          115 
 67.32         124 
 67.34         126 
 67.36         120 
 67.38         151 
 67.4          138 
 67.42         152 
 67.44         181 
 67.46         162 
 67.48         167 
 67.5          204 
 67.52         216 
 67.54         265 
 67.56         313 
 67.58         323 
 67.6          360 
 67.62         420 
 67.64         475 
 67.66         507 
 67.68         552 
 67.7          528 
 67.72         600 
 67.74         633 
 67.76         769 
 67.78         839 
 67.8          908 
 67.82         942 
 67.84         972 
 67.86         958 
 67.88         992 
 67.9          976 
 67.92         954 
 67.94         912 
 67.96         918 
 67.98         862 
 68            850 
 68.02         813 
 68.04         800 
 68.06         752 
 68.08         669 
 68.1          654 
 68.12         636 
 68.14         527 
 68.16         484 
 68.18         477 
 68.2          368 
 68.22         366 
 68.24         321 
 68.26         325 
 68.28         234 
 68.3          245 
 68.32         217 
 68.34         198 
 68.36         185 
 68.38         154 
 68.4          153 
 68.42         130 
 68.44         151 
 68.46         166 
 68.48         153 
 68.5          156 
 68.52         136 
 68.54         143 
 68.56         149 
 68.58         133 
 68.6          153 
 68.62         140 
 68.64         167 
 68.66         169 
 68.68         187 
 68.7          180 
 68.72         192 
 68.74         237 
 68.76         213 
 68.78         235 
 68.8          237 
 68.82         237 
 68.84         253 
 68.86         287 
 68.88         330 
 68.9          394 
 68.92         381 
 68.94         434 
 68.96         449 
 68.98         522 
 69            517 
 69.02         550 
 69.04         534 
 69.06         492 
 69.08         564 
 69.1          555 
 69.12         579 
 69.14         586 
 69.16         571 
 69.18         587 
 69.2          571 
 69.22         550 
 69.24         582 
 69.26         596 
 69.28         591 
 69.3          578 
 69.32         582 
 69.34         574 
 69.36         569 
 69.38         552 
 69.4          581 
 69.42         503 
 69.44         548 
 69.46         552 
 69.48         565 
 69.5          588 
 69.52         590 
 69.54         664 
 69.56         659 
 69.58         707 
 69.6          729 
 69.62         735 
 69.64         696 
 69.66         652 
 69.68         624 
 69.7          620 
 69.72         529 
 69.74         545 
 69.76         508 
 69.78         521 
 69.8          425 
 69.82         437 
 69.84         416 
 69.86         351 
 69.88         335 
 69.9          284 
 69.92         290 
 69.94         232 
 69.96         205 
 69.98         214 
 70            172 
 70.02         182 
 70.04         155 
 70.06         140 
 70.08         156 
 70.1          154 
 70.12         130 
 70.14         124 
 70.16         127 
 70.18         117 
 70.2          148 
 70.22         145 
 70.24         128 
 70.26         130 
 70.28         137 
 70.3          125 
 70.32         130 
 70.34         132 
 70.36         125 
 70.38         131 
 70.4          132 
 70.42         131 
 70.44         94 
 70.46         132 
 70.48         116 
 70.5          94 
 70.52         111 
 70.54         123 
 70.56         128 
 70.58         104 
 70.6          106 
 70.62         100 
 70.64         114 
 70.66         113 
 70.68         88 
 70.7          112 
 70.72         71 
 70.74         77 
 70.76         105 
 70.78         96 
 70.8          82 
 70.82         83 
 70.84         106 
 70.86         95 
 70.88         92 
 70.9          68 
 70.92         78 
 70.94         87 
 70.96         75 
 70.98         88 
 71            75 
 71.02         83 
 71.04         97 
 71.06         69 
 71.08         91 
 71.1          87 
 71.12         122 
 71.14         105 
 71.16         98 
 71.18         127 
 71.2          112 
 71.22         103 
 71.24         132 
 71.26         124 
 71.28         151 
 71.3          162 
 71.32         184 
 71.34         167 
 71.36         208 
 71.38         238 
 71.4          241 
 71.42         296 
 71.44         298 
 71.46         306 
 71.48         351 
 71.5          328 
 71.52         351 
 71.54         394 
 71.56         386 
 71.58         396 
 71.6          423 
 71.62         378 
 71.64         370 
 71.66         375 
 71.68         332 
 71.7          311 
 71.72         294 
 71.74         263 
 71.76         283 
 71.78         270 
 71.8          257 
 71.82         264 
 71.84         242 
 71.86         232 
 71.88         243 
 71.9          232 
 71.92         251 
 71.94         274 
 71.96         326 
 71.98         388 
 72            398 
 72.02         443 
 72.04         390 
 72.06         462 
 72.08         453 
 72.1          481 
 72.12         515 
 72.14         479 
 72.16         487 
 72.18         501 
 72.2          470 
 72.22         467 
 72.24         476 
 72.26         405 
 72.28         432 
 72.3          436 
 72.32         363 
 72.34         363 
 72.36         376 
 72.38         356 
 72.4          318 
 72.42         267 
 72.44         346 
 72.46         288 
 72.48         290 
 72.5          311 
 72.52         295 
 72.54         302 
 72.56         322 
 72.58         303 
 72.6          306 
 72.62         342 
 72.64         322 
 72.66         297 
 72.68         288 
 72.7          317 
 72.72         317 
 72.74         320 
 72.76         356 
 72.78         359 
 72.8          385 
 72.82         358 
 72.84         350 
 72.86         374 
 72.88         364 
 72.9          357 
 72.92         390 
 72.94         339 
 72.96         301 
 72.98         329 
 73            322 
 73.02         334 
 73.04         327 
 73.06         334 
 73.08         344 
 73.1          360 
 73.12         383 
 73.14         416 
 73.16         396 
 73.18         401 
 73.2          470 
 73.22         477 
 73.24         512 
 73.26         553 
 73.28         519 
 73.3          613 
 73.32         660 
 73.34         625 
 73.36         638 
 73.38         673 
 73.4          669 
 73.42         686 
 73.44         727 
 73.46         678 
 73.48         742 
 73.5          710 
 73.52         770 
 73.54         743 
 73.56         705 
 73.58         710 
 73.6          755 
 73.62         752 
 73.64         759 
 73.66         730 
 73.68         695 
 73.7          724 
 73.72         727 
 73.74         750 
 73.76         706 
 73.78         672 
 73.8          745 
 73.82         669 
 73.84         669 
 73.86         629 
 73.88         594 
 73.9          541 
 73.92         494 
 73.93999      457 
 73.96         452 
 73.98         431 
 74            430 
 74.02         367 
 74.04         373 
 74.06         327 
 74.08         328 
 74.1          291 
 74.12         285 
 74.14         229 
 74.16         209 
 74.18         233 
 74.2          184 
 74.22         181 
 74.24         171 
 74.26         175 
 74.28         159 
 74.3          155 
 74.32         144 
 74.34         167 
 74.36         168 
 74.38         143 
 74.4          148 
 74.42         150 
 74.43999      139 
 74.46         135 
 74.48         124 
 74.5          119 
 74.52         114 
 74.54         126 
 74.56         126 
 74.58         126 
 74.6          120 
 74.62         120 
 74.64         119 
 74.66         134 
 74.68         110 
 74.7          112 
 74.72         110 
 74.74         100 
 74.76         114 
 74.78         105 
 74.8          95 
 74.82         108 
 74.84         123 
 74.86         110 
 74.88         118 
 74.9          92 
 74.92         104 
 74.93999      106 
 74.96         103 
 74.98         112 
 75            99 
