LAGP-P2  Original Data
 3151 
 12            110 
 12.02         109 
 12.04         109 
 12.06         105 
 12.08         98 
 12.1          95 
 12.12         99 
 12.14         97 
 12.16         98 
 12.18         90 
 12.2          97 
 12.22         62 
 12.24         120 
 12.26         104 
 12.28         103 
 12.3          115 
 12.32         104 
 12.34         107 
 12.36         98 
 12.38         118 
 12.4          107 
 12.42         101 
 12.44         97 
 12.46         78 
 12.48         98 
 12.5          99 
 12.52         94 
 12.54         128 
 12.56         87 
 12.58         109 
 12.6          96 
 12.62         106 
 12.64         91 
 12.66         101 
 12.68         119 
 12.7          98 
 12.72         103 
 12.74         121 
 12.76         83 
 12.78         106 
 12.8          108 
 12.82         109 
 12.84         108 
 12.86         107 
 12.88         106 
 12.9          110 
 12.92         112 
 12.94         103 
 12.96         85 
 12.98         104 
 13            104 
 13.02         98 
 13.04         103 
 13.06         110 
 13.08         80 
 13.1          112 
 13.12         94 
 13.14         92 
 13.16         99 
 13.18         67 
 13.2          130 
 13.22         106 
 13.24         98 
 13.26         97 
 13.28         93 
 13.3          96 
 13.32         91 
 13.34         89 
 13.36         105 
 13.38         102 
 13.4          127 
 13.42         76 
 13.44         100 
 13.46         95 
 13.48         121 
 13.5          100 
 13.52         112 
 13.54         124 
 13.56         115 
 13.58         117 
 13.6          96 
 13.62         97 
 13.64         105 
 13.66         116 
 13.68         105 
 13.7          84 
 13.72         95 
 13.74         82 
 13.76         99 
 13.78         101 
 13.8          75 
 13.82         76 
 13.84         79 
 13.86         86 
 13.88         81 
 13.9          88 
 13.92         95 
 13.94         80 
 13.96         82 
 13.98         84 
 14            83 
 14.02         86 
 14.04         88 
 14.06         77 
 14.08         87 
 14.1          76 
 14.12         63 
 14.14         77 
 14.16         86 
 14.18         64 
 14.2          105 
 14.22         86 
 14.24         92 
 14.26         59 
 14.28         96 
 14.3          90 
 14.32         103 
 14.34         97 
 14.36         90 
 14.38         99 
 14.4          92 
 14.42         89 
 14.44         93 
 14.46         117 
 14.48         93 
 14.5          108 
 14.52         130 
 14.54         114 
 14.56         130 
 14.58         124 
 14.6          141 
 14.62         146 
 14.64         170 
 14.66         181 
 14.68         181 
 14.7          217 
 14.72         239 
 14.74         224 
 14.76         275 
 14.78         338 
 14.8          356 
 14.82         368 
 14.84         475 
 14.86         540 
 14.88         586 
 14.9          687 
 14.92         798 
 14.94         908 
 14.96         1085 
 14.98         1276 
 15            1543 
 15.02         1697 
 15.04         1852 
 15.06         1857 
 15.08         1713 
 15.1          1412 
 15.12         1090 
 15.14         771 
 15.16         536 
 15.18         344 
 15.2          214 
 15.22         145 
 15.24         112 
 15.26         98 
 15.28         92 
 15.3          93 
 15.32         92 
 15.34         96 
 15.36         73 
 15.38         81 
 15.4          76 
 15.42         72 
 15.44         85 
 15.46         73 
 15.48         76 
 15.5          64 
 15.52         64 
 15.54         69 
 15.56         76 
 15.58         75 
 15.6          66 
 15.62         68 
 15.64         70 
 15.66         65 
 15.68         74 
 15.7          76 
 15.72         76 
 15.74         70 
 15.76         72 
 15.78         76 
 15.8          75 
 15.82         53 
 15.84         72 
 15.86         66 
 15.88         60 
 15.9          62 
 15.92         72 
 15.94         79 
 15.96         59 
 15.98         57 
 16            72 
 16.02         63 
 16.04         59 
 16.06         64 
 16.08         70 
 16.1          59 
 16.12         51 
 16.14         67 
 16.16         60 
 16.18         74 
 16.2          43 
 16.22         54 
 16.24         53 
 16.26         57 
 16.28         67 
 16.3          61 
 16.32         69 
 16.34         66 
 16.36         60 
 16.38         54 
 16.4          63 
 16.42         57 
 16.44         70 
 16.46         58 
 16.48         71 
 16.5          48 
 16.52         60 
 16.54         59 
 16.56         62 
 16.58         65 
 16.6          58 
 16.62         49 
 16.64         79 
 16.66         75 
 16.68         68 
 16.7          64 
 16.72         72 
 16.74         59 
 16.76         64 
 16.78         81 
 16.8          55 
 16.82         61 
 16.84         55 
 16.86         67 
 16.88         53 
 16.9          52 
 16.92         49 
 16.94         72 
 16.96         63 
 16.98         61 
 17            70 
 17.02         57 
 17.04         57 
 17.06         61 
 17.08         56 
 17.1          64 
 17.12         62 
 17.14         56 
 17.16         72 
 17.18         63 
 17.2          81 
 17.22         68 
 17.24         85 
 17.26         62 
 17.28         70 
 17.3          85 
 17.32         77 
 17.34         99 
 17.36         80 
 17.38         90 
 17.4          85 
 17.42         92 
 17.44         119 
 17.46         105 
 17.48         116 
 17.5          121 
 17.52         115 
 17.54         111 
 17.56         137 
 17.58         153 
 17.6          157 
 17.62         139 
 17.64         137 
 17.66         141 
 17.68         163 
 17.7          146 
 17.72         161 
 17.74         159 
 17.76         152 
 17.78         179 
 17.8          167 
 17.82         172 
 17.84         128 
 17.86         124 
 17.88         84 
 17.9          91 
 17.92         74 
 17.94         74 
 17.96         84 
 17.98         62 
 18            84 
 18.02         73 
 18.04         56 
 18.06         47 
 18.08         55 
 18.1          65 
 18.12         70 
 18.14         57 
 18.16         62 
 18.18         71 
 18.2          66 
 18.22         57 
 18.24         52 
 18.26         65 
 18.28         82 
 18.3          64 
 18.32         66 
 18.34         59 
 18.36         66 
 18.38         59 
 18.4          54 
 18.42         74 
 18.44         75 
 18.46         60 
 18.48         61 
 18.5          59 
 18.52         60 
 18.54         45 
 18.56         68 
 18.58         67 
 18.6          65 
 18.62         65 
 18.64         79 
 18.66         64 
 18.68         76 
 18.7          52 
 18.72         52 
 18.74         67 
 18.76         52 
 18.78         57 
 18.8          54 
 18.82         68 
 18.84         72 
 18.86         47 
 18.88         55 
 18.9          58 
 18.92         50 
 18.94         59 
 18.96         51 
 18.98         56 
 19            51 
 19.02         60 
 19.04         55 
 19.06         57 
 19.08         46 
 19.1          52 
 19.12         62 
 19.14         57 
 19.16         70 
 19.18         43 
 19.2          42 
 19.22         56 
 19.24         49 
 19.26         53 
 19.28         51 
 19.3          64 
 19.32         61 
 19.34         53 
 19.36         46 
 19.38         58 
 19.4          50 
 19.42         46 
 19.44         69 
 19.46         74 
 19.48         50 
 19.5          49 
 19.52         54 
 19.54         47 
 19.56         66 
 19.58         43 
 19.6          46 
 19.62         48 
 19.64         68 
 19.66         53 
 19.68         58 
 19.7          65 
 19.72         67 
 19.74         46 
 19.76         67 
 19.78         64 
 19.8          72 
 19.82         41 
 19.84         74 
 19.86         62 
 19.88         52 
 19.9          52 
 19.92         50 
 19.94         46 
 19.96         74 
 19.98         59 
 20            60 
 20.02         54 
 20.04         59 
 20.06         70 
 20.08         73 
 20.1          77 
 20.12         75 
 20.14         84 
 20.16         83 
 20.18         68 
 20.2          77 
 20.22         100 
 20.24         82 
 20.26         89 
 20.28         82 
 20.3          98 
 20.32         109 
 20.34         98 
 20.36         130 
 20.38         112 
 20.4          135 
 20.42         136 
 20.44         114 
 20.46         124 
 20.48         129 
 20.5          114 
 20.52         125 
 20.54         113 
 20.56         73 
 20.58         84 
 20.6          102 
 20.62         88 
 20.64         85 
 20.66         97 
 20.68         92 
 20.7          98 
 20.72         127 
 20.74         107 
 20.76         113 
 20.78         140 
 20.8          148 
 20.82         195 
 20.84         195 
 20.86         218 
 20.88         254 
 20.9          287 
 20.92         340 
 20.94         386 
 20.96         459 
 20.98         555 
 21            646 
 21.02         788 
 21.04         923 
 21.06         1063 
 21.08         1348 
 21.1          1537 
 21.12         2059 
 21.14         2465 
 21.16         3008 
 21.18         3617 
 21.2          4304 
 21.22         4952 
 21.24         5531 
 21.26         5853 
 21.28         5814 
 21.3          5579 
 21.32         5369 
 21.34         4985 
 21.36         4513 
 21.38         4303 
 21.4          4151 
 21.42         4234 
 21.44         4126 
 21.46         4246 
 21.48         4017 
 21.5          3492 
 21.52         3029 
 21.54         2442 
 21.56         1885 
 21.58         1376 
 21.6          1030 
 21.62         701 
 21.64         565 
 21.66         487 
 21.68         455 
 21.7          439 
 21.72         409 
 21.74         363 
 21.76         379 
 21.78         365 
 21.8          305 
 21.82         295 
 21.84         258 
 21.86         193 
 21.88         165 
 21.9          124 
 21.92         114 
 21.94         100 
 21.96         111 
 21.98         73 
 22            79 
 22.02         56 
 22.04         72 
 22.06         77 
 22.08         63 
 22.1          55 
 22.12         71 
 22.14         64 
 22.16         54 
 22.18         51 
 22.2          65 
 22.22         73 
 22.24         62 
 22.26         56 
 22.28         54 
 22.3          56 
 22.32         74 
 22.34         67 
 22.36         82 
 22.38         51 
 22.4          80 
 22.42         56 
 22.44         67 
 22.46         66 
 22.48         55 
 22.5          69 
 22.52         52 
 22.54         57 
 22.56         55 
 22.58         46 
 22.6          54 
 22.62         50 
 22.64         69 
 22.66         71 
 22.68         91 
 22.7          75 
 22.72         91 
 22.74         73 
 22.76         70 
 22.78         93 
 22.8          71 
 22.82         81 
 22.84         78 
 22.86         74 
 22.88         79 
 22.9          65 
 22.92         69 
 22.94         60 
 22.96         50 
 22.98         69 
 23            59 
 23.02         62 
 23.04         64 
 23.06         64 
 23.08         58 
 23.1          72 
 23.12         86 
 23.14         65 
 23.16         97 
 23.18         92 
 23.2          89 
 23.22         90 
 23.24         109 
 23.26         119 
 23.28         110 
 23.3          119 
 23.32         110 
 23.34         107 
 23.36         89 
 23.38         110 
 23.4          89 
 23.42         100 
 23.44         65 
 23.46         62 
 23.48         59 
 23.5          66 
 23.52         61 
 23.54         57 
 23.56         69 
 23.58         54 
 23.6          44 
 23.62         54 
 23.64         56 
 23.66         52 
 23.68         45 
 23.7          52 
 23.72         58 
 23.74         44 
 23.76         50 
 23.78         32 
 23.8          56 
 23.82         55 
 23.84         51 
 23.86         46 
 23.88         58 
 23.9          50 
 23.92         56 
 23.94         48 
 23.96         47 
 23.98         65 
 24            52 
 24.02         52 
 24.04         50 
 24.06         65 
 24.08         45 
 24.1          50 
 24.12         46 
 24.14         55 
 24.16         56 
 24.18         63 
 24.2          40 
 24.22         43 
 24.24         51 
 24.26         58 
 24.28         51 
 24.3          42 
 24.32         68 
 24.34         62 
 24.36         45 
 24.38         57 
 24.4          46 
 24.42         64 
 24.44         46 
 24.46         51 
 24.48         64 
 24.5          53 
 24.52         68 
 24.54         58 
 24.56         88 
 24.58         84 
 24.6          83 
 24.62         93 
 24.64         113 
 24.66         137 
 24.68         139 
 24.7          149 
 24.72         188 
 24.74         232 
 24.76         219 
 24.78         256 
 24.8          333 
 24.82         346 
 24.84         420 
 24.86         525 
 24.88         630 
 24.9          797 
 24.92         956 
 24.94         1187 
 24.96         1432 
 24.98         1975 
 25            2360 
 25.02         2951 
 25.04         3570 
 25.06         4431 
 25.08         5419 
 25.1          6126 
 25.12         6640 
 25.14         6712 
 25.16         6395 
 25.18         5683 
 25.2          4801 
 25.22         3831 
 25.24         2841 
 25.26         1951 
 25.28         1315 
 25.3          845 
 25.32         577 
 25.34         382 
 25.36         288 
 25.38         229 
 25.4          199 
 25.42         167 
 25.44         136 
 25.46         114 
 25.48         111 
 25.5          112 
 25.52         116 
 25.54         122 
 25.56         103 
 25.58         97 
 25.6          146 
 25.62         130 
 25.64         109 
 25.66         145 
 25.68         159 
 25.7          159 
 25.72         194 
 25.74         224 
 25.76         221 
 25.78         225 
 25.8          264 
 25.82         257 
 25.84         278 
 25.86         307 
 25.88         322 
 25.9          363 
 25.92         363 
 25.94         364 
 25.96         302 
 25.98         324 
 26            334 
 26.02         273 
 26.04         267 
 26.06         232 
 26.08         218 
 26.1          187 
 26.12         150 
 26.14         157 
 26.16         140 
 26.18         128 
 26.2          108 
 26.22         104 
 26.24         114 
 26.26         106 
 26.28         110 
 26.3          109 
 26.32         104 
 26.34         127 
 26.36         117 
 26.38         89 
 26.4          104 
 26.42         73 
 26.44         88 
 26.46         79 
 26.48         68 
 26.5          85 
 26.52         56 
 26.54         87 
 26.56         79 
 26.58         83 
 26.6          91 
 26.62         96 
 26.64         86 
 26.66         88 
 26.68         100 
 26.7          90 
 26.72         83 
 26.74         78 
 26.76         93 
 26.78         86 
 26.8          89 
 26.82         92 
 26.84         98 
 26.86         110 
 26.88         85 
 26.9          101 
 26.92         87 
 26.94         90 
 26.96         76 
 26.98         88 
 27            82 
 27.02         72 
 27.04         100 
 27.06         82 
 27.08         100 
 27.1          79 
 27.12         75 
 27.14         85 
 27.16         77 
 27.18         64 
 27.2          80 
 27.22         64 
 27.24         73 
 27.26         86 
 27.28         78 
 27.3          83 
 27.32         60 
 27.34         61 
 27.36         73 
 27.38         65 
 27.4          79 
 27.42         84 
 27.44         85 
 27.46         64 
 27.48         79 
 27.5          72 
 27.52         59 
 27.54         65 
 27.56         79 
 27.58         65 
 27.6          57 
 27.62         68 
 27.64         65 
 27.66         73 
 27.68         59 
 27.7          53 
 27.72         64 
 27.74         73 
 27.76         63 
 27.78         59 
 27.8          61 
 27.82         64 
 27.84         81 
 27.86         83 
 27.88         73 
 27.9          82 
 27.92         85 
 27.94         90 
 27.96         64 
 27.98         74 
 28            70 
 28.02         57 
 28.04         90 
 28.06         79 
 28.08         75 
 28.1          69 
 28.12         82 
 28.14         87 
 28.16         71 
 28.18         69 
 28.2          71 
 28.22         59 
 28.24         63 
 28.26         58 
 28.28         65 
 28.3          53 
 28.32         60 
 28.34         39 
 28.36         46 
 28.38         43 
 28.4          39 
 28.42         53 
 28.44         36 
 28.46         42 
 28.48         56 
 28.5          46 
 28.52         55 
 28.54         50 
 28.56         43 
 28.58         50 
 28.6          60 
 28.62         49 
 28.64         48 
 28.66         33 
 28.68         40 
 28.7          40 
 28.72         43 
 28.74         46 
 28.76         40 
 28.78         52 
 28.8          39 
 28.82         47 
 28.84         42 
 28.86         38 
 28.88         46 
 28.9          54 
 28.92         37 
 28.94         54 
 28.96         34 
 28.98         46 
 29            42 
 29.02         54 
 29.04         34 
 29.06         43 
 29.08         51 
 29.1          41 
 29.12         43 
 29.14         30 
 29.16         45 
 29.18         43 
 29.2          39 
 29.22         45 
 29.24         57 
 29.26         51 
 29.28         47 
 29.3          46 
 29.32         56 
 29.34         36 
 29.36         40 
 29.38         37 
 29.4          45 
 29.42         43 
 29.44         51 
 29.46         54 
 29.48         56 
 29.5          52 
 29.52         52 
 29.54         53 
 29.56         59 
 29.58         64 
 29.6          59 
 29.62         65 
 29.64         56 
 29.66         72 
 29.68         81 
 29.7          72 
 29.72         63 
 29.74         92 
 29.76         85 
 29.78         80 
 29.8          94 
 29.82         100 
 29.84         104 
 29.86         82 
 29.88         101 
 29.9          77 
 29.92         108 
 29.94         107 
 29.96         129 
 29.98         141 
 30            121 
 30.02         122 
 30.04         120 
 30.06         140 
 30.08         184 
 30.1          204 
 30.12         245 
 30.14         260 
 30.16         309 
 30.18         404 
 30.2          491 
 30.22         696 
 30.24         831 
 30.26         1033 
 30.28         1386 
 30.3          1663 
 30.32         2114 
 30.34         2598 
 30.36         3050 
 30.38         3447 
 30.4          3753 
 30.42         3733 
 30.44         3644 
 30.46         3279 
 30.48         2842 
 30.5          2372 
 30.52         1904 
 30.54         1382 
 30.56         952 
 30.58         654 
 30.6          524 
 30.62         369 
 30.64         256 
 30.66         238 
 30.68         227 
 30.7          170 
 30.72         186 
 30.74         156 
 30.76         138 
 30.78         159 
 30.8          146 
 30.82         119 
 30.84         145 
 30.86         134 
 30.88         122 
 30.9          98 
 30.92         100 
 30.94         106 
 30.96         92 
 30.98         76 
 31            111 
 31.02         95 
 31.04         98 
 31.06         87 
 31.08         89 
 31.1          61 
 31.12         82 
 31.14         78 
 31.16         87 
 31.18         83 
 31.2          67 
 31.22         70 
 31.24         58 
 31.26         59 
 31.28         50 
 31.3          62 
 31.32         51 
 31.34         50 
 31.36         48 
 31.38         47 
 31.4          45 
 31.42         49 
 31.44         39 
 31.46         47 
 31.48         40 
 31.5          37 
 31.52         51 
 31.54         40 
 31.56         39 
 31.58         57 
 31.6          38 
 31.62         53 
 31.64         38 
 31.66         56 
 31.68         35 
 31.7          39 
 31.72         44 
 31.74         39 
 31.76         42 
 31.78         26 
 31.8          50 
 31.82         38 
 31.84         40 
 31.86         34 
 31.88         47 
 31.9          40 
 31.92         51 
 31.94         50 
 31.96         44 
 31.98         39 
 32            38 
 32.02         36 
 32.04         37 
 32.06         42 
 32.08         42 
 32.1          41 
 32.12         43 
 32.14         29 
 32.16         41 
 32.18         28 
 32.2          59 
 32.22         44 
 32.24         27 
 32.26         36 
 32.28         29 
 32.3          38 
 32.32         28 
 32.34         36 
 32.36         38 
 32.38         33 
 32.4          33 
 32.42         40 
 32.44         36 
 32.46         32 
 32.48         33 
 32.5          32 
 32.52         35 
 32.54         38 
 32.56         34 
 32.58         44 
 32.6          33 
 32.62         31 
 32.64         34 
 32.66         47 
 32.68         38 
 32.7          43 
 32.72         49 
 32.74         40 
 32.76         50 
 32.78         38 
 32.8          37 
 32.82         58 
 32.84         36 
 32.86         47 
 32.88         60 
 32.9          41 
 32.92         45 
 32.94         57 
 32.96         69 
 32.98         64 
 33            74 
 33.02         70 
 33.04         74 
 33.06         112 
 33.08         83 
 33.1          128 
 33.12         135 
 33.14         186 
 33.16         206 
 33.18         255 
 33.2          317 
 33.22         401 
 33.24         462 
 33.26         663 
 33.28         733 
 33.3          917 
 33.32         1042 
 33.34         1061 
 33.36         1193 
 33.38         1142 
 33.4          1091 
 33.42         994 
 33.44         899 
 33.46         755 
 33.48         603 
 33.5          481 
 33.52         377 
 33.54         280 
 33.56         252 
 33.58         179 
 33.6          167 
 33.62         141 
 33.64         153 
 33.66         167 
 33.68         175 
 33.7          216 
 33.72         217 
 33.74         264 
 33.76         332 
 33.78         434 
 33.8          554 
 33.82         693 
 33.84         904 
 33.86         1126 
 33.88         1364 
 33.9          1617 
 33.92         1831 
 33.94         1965 
 33.96         2166 
 33.98         2330 
 34            2307 
 34.02         2109 
 34.04         1887 
 34.06         1750 
 34.08         1405 
 34.1          1155 
 34.12         858 
 34.14         638 
 34.16         462 
 34.18         326 
 34.2          254 
 34.22         202 
 34.24         144 
 34.26         107 
 34.28         94 
 34.3          82 
 34.32         86 
 34.34         65 
 34.36         58 
 34.38         57 
 34.4          57 
 34.42         58 
 34.44         59 
 34.46         56 
 34.48         62 
 34.5          53 
 34.52         65 
 34.54         55 
 34.56         42 
 34.58         45 
 34.6          49 
 34.62         53 
 34.64         50 
 34.66         45 
 34.68         44 
 34.7          56 
 34.72         35 
 34.74         48 
 34.76         41 
 34.78         44 
 34.8          42 
 34.82         41 
 34.84         45 
 34.86         43 
 34.88         47 
 34.9          35 
 34.92         32 
 34.94         44 
 34.96         32 
 34.98         35 
 35            42 
 35.02         43 
 35.04         44 
 35.06         44 
 35.08         31 
 35.1          39 
 35.12         36 
 35.14         36 
 35.16         40 
 35.18         41 
 35.2          45 
 35.22         60 
 35.24         46 
 35.26         61 
 35.28         46 
 35.3          55 
 35.32         44 
 35.34         50 
 35.36         50 
 35.38         55 
 35.4          41 
 35.42         56 
 35.44         54 
 35.46         58 
 35.48         55 
 35.5          69 
 35.52         58 
 35.54         55 
 35.56         73 
 35.58         63 
 35.6          64 
 35.62         76 
 35.64         80 
 35.66         76 
 35.68         68 
 35.7          80 
 35.72         92 
 35.74         81 
 35.76         85 
 35.78         91 
 35.8          81 
 35.82         105 
 35.84         90 
 35.86         88 
 35.88         81 
 35.9          84 
 35.92         83 
 35.94         78 
 35.96         73 
 35.98         75 
 36            78 
 36.02         70 
 36.04         60 
 36.06         58 
 36.08         52 
 36.1          59 
 36.12         68 
 36.14         56 
 36.16         43 
 36.18         40 
 36.2          44 
 36.22         44 
 36.24         42 
 36.26         41 
 36.28         49 
 36.3          37 
 36.32         36 
 36.34         36 
 36.36         37 
 36.38         47 
 36.4          34 
 36.42         34 
 36.44         49 
 36.46         41 
 36.48         37 
 36.5          46 
 36.52         42 
 36.54         34 
 36.56         38 
 36.58         28 
 36.6          48 
 36.62         44 
 36.64         37 
 36.66         35 
 36.68         36 
 36.7          34 
 36.72         35 
 36.74         38 
 36.76         42 
 36.78         34 
 36.8          48 
 36.82         39 
 36.84         39 
 36.86         43 
 36.88         47 
 36.9          38 
 36.92         47 
 36.94         46 
 36.96         46 
 36.98         51 
 37            62 
 37.02         66 
 37.04         66 
 37.06         62 
 37.08         78 
 37.1          74 
 37.12         90 
 37.14         81 
 37.16         98 
 37.18         103 
 37.2          121 
 37.22         127 
 37.24         134 
 37.26         149 
 37.28         168 
 37.3          158 
 37.32         231 
 37.34         239 
 37.36         295 
 37.38         391 
 37.4          486 
 37.42         646 
 37.44         844 
 37.46         1003 
 37.48         1282 
 37.5          1472 
 37.52         1626 
 37.54         1822 
 37.56         1951 
 37.58         2070 
 37.6          2122 
 37.62         2040 
 37.64         2077 
 37.66         1891 
 37.68         1831 
 37.7          1553 
 37.72         1428 
 37.74         1153 
 37.76         937 
 37.78         774 
 37.8          622 
 37.82         536 
 37.84         404 
 37.86         318 
 37.88         212 
 37.9          197 
 37.92         168 
 37.94         143 
 37.96         139 
 37.98         116 
 38            119 
 38.02         111 
 38.04         95 
 38.06         111 
 38.08         93 
 38.1          73 
 38.12         71 
 38.14         75 
 38.16         87 
 38.18         89 
 38.2          71 
 38.22         66 
 38.24         50 
 38.26         70 
 38.28         60 
 38.3          53 
 38.32         38 
 38.34         55 
 38.36         51 
 38.38         33 
 38.4          44 
 38.42         43 
 38.44         31 
 38.46         33 
 38.48         49 
 38.5          38 
 38.52         41 
 38.54         35 
 38.56         45 
 38.58         43 
 38.6          36 
 38.62         28 
 38.64         45 
 38.66         32 
 38.68         22 
 38.7          32 
 38.72         36 
 38.74         33 
 38.76         46 
 38.78         34 
 38.8          35 
 38.82         31 
 38.84         38 
 38.86         33 
 38.88         45 
 38.9          37 
 38.92         41 
 38.94         28 
 38.96         46 
 38.98         49 
 39            48 
 39.02         46 
 39.04         36 
 39.06         49 
 39.08         52 
 39.1          35 
 39.12         43 
 39.14         41 
 39.16         56 
 39.18         45 
 39.2          47 
 39.22         44 
 39.24         61 
 39.26         42 
 39.28         45 
 39.3          59 
 39.32         48 
 39.34         60 
 39.36         48 
 39.38         48 
 39.4          50 
 39.42         54 
 39.44         46 
 39.46         46 
 39.48         41 
 39.5          48 
 39.52         37 
 39.54         58 
 39.56         46 
 39.58         43 
 39.6          50 
 39.62         52 
 39.64         49 
 39.66         47 
 39.68         42 
 39.7          47 
 39.72         35 
 39.74         32 
 39.76         61 
 39.78         63 
 39.8          56 
 39.82         52 
 39.84         59 
 39.86         68 
 39.88         64 
 39.9          76 
 39.92         86 
 39.94         68 
 39.96         87 
 39.98         70 
 40            78 
 40.02         93 
 40.04         77 
 40.06         75 
 40.08         76 
 40.1          71 
 40.12         57 
 40.14         46 
 40.16         40 
 40.18         63 
 40.2          41 
 40.22         49 
 40.24         40 
 40.26         39 
 40.28         33 
 40.3          37 
 40.32         32 
 40.34         39 
 40.36         47 
 40.38         41 
 40.4          41 
 40.42         36 
 40.44         34 
 40.46         30 
 40.48         29 
 40.5          25 
 40.52         47 
 40.54         31 
 40.56         29 
 40.58         34 
 40.6          37 
 40.62         32 
 40.64         39 
 40.66         37 
 40.68         38 
 40.7          36 
 40.72         38 
 40.74         56 
 40.76         45 
 40.78         43 
 40.8          50 
 40.82         31 
 40.84         41 
 40.86         32 
 40.88         45 
 40.9          36 
 40.92         49 
 40.94         41 
 40.96         38 
 40.98         31 
 41            40 
 41.02         36 
 41.04         37 
 41.06         22 
 41.08         32 
 41.1          31 
 41.12         45 
 41.14         35 
 41.16         34 
 41.18         28 
 41.2          43 
 41.22         30 
 41.24         33 
 41.26         40 
 41.28         51 
 41.3          37 
 41.32         42 
 41.34         52 
 41.36         45 
 41.38         58 
 41.4          40 
 41.42         57 
 41.44         39 
 41.46         55 
 41.48         41 
 41.5          59 
 41.52         58 
 41.54         62 
 41.56         58 
 41.58         50 
 41.6          58 
 41.62         61 
 41.64         55 
 41.66         60 
 41.68         59 
 41.7          47 
 41.72         58 
 41.74         66 
 41.76         50 
 41.78         54 
 41.8          45 
 41.82         39 
 41.84         49 
 41.86         49 
 41.88         51 
 41.9          48 
 41.92         46 
 41.94         38 
 41.96         46 
 41.98         51 
 42            42 
 42.02         51 
 42.04         38 
 42.06         35 
 42.08         32 
 42.1          30 
 42.12         41 
 42.14         51 
 42.16         39 
 42.18         40 
 42.2          52 
 42.22         44 
 42.24         40 
 42.26         37 
 42.28         36 
 42.3          38 
 42.32         50 
 42.34         51 
 42.36         38 
 42.38         37 
 42.4          28 
 42.42         36 
 42.44         49 
 42.46         31 
 42.48         43 
 42.5          38 
 42.52         36 
 42.54         40 
 42.56         43 
 42.58         31 
 42.6          38 
 42.62         35 
 42.64         36 
 42.66         35 
 42.68         32 
 42.7          30 
 42.72         32 
 42.74         28 
 42.76         33 
 42.78         33 
 42.8          32 
 42.82         34 
 42.84         38 
 42.86         52 
 42.88         54 
 42.9          39 
 42.92         41 
 42.94         35 
 42.96         36 
 42.98         46 
 43            37 
 43.02         45 
 43.04         64 
 43.06         51 
 43.08         58 
 43.1          57 
 43.12         64 
 43.14         78 
 43.16         88 
 43.18         116 
 43.2          125 
 43.22         142 
 43.24         178 
 43.26         184 
 43.28         217 
 43.3          237 
 43.32         226 
 43.34         274 
 43.36         278 
 43.38         279 
 43.4          234 
 43.42         243 
 43.44         220 
 43.46         201 
 43.48         174 
 43.5          147 
 43.52         135 
 43.54         107 
 43.56         92 
 43.58         76 
 43.6          63 
 43.62         63 
 43.64         66 
 43.66         55 
 43.68         66 
 43.7          55 
 43.72         61 
 43.74         46 
 43.76         53 
 43.78         64 
 43.8          57 
 43.82         69 
 43.84         54 
 43.86         48 
 43.88         50 
 43.9          40 
 43.92         47 
 43.94         48 
 43.96         34 
 43.98         32 
 44            44 
 44.02         35 
 44.04         31 
 44.06         35 
 44.08         41 
 44.1          37 
 44.12         36 
 44.14         29 
 44.16         35 
 44.18         36 
 44.2          40 
 44.22         41 
 44.24         34 
 44.26         33 
 44.28         29 
 44.3          30 
 44.32         27 
 44.34         38 
 44.36         32 
 44.38         37 
 44.4          33 
 44.42         39 
 44.44         42 
 44.46         41 
 44.48         36 
 44.5          40 
 44.52         42 
 44.54         47 
 44.56         51 
 44.58         42 
 44.6          38 
 44.62         38 
 44.64         42 
 44.66         44 
 44.68         36 
 44.7          38 
 44.72         37 
 44.74         38 
 44.76         41 
 44.78         43 
 44.8          37 
 44.82         44 
 44.84         43 
 44.86         44 
 44.88         39 
 44.9          40 
 44.92         31 
 44.94         53 
 44.96         40 
 44.98         43 
 45            56 
 45.02         45 
 45.04         51 
 45.06         48 
 45.08         57 
 45.1          58 
 45.12         84 
 45.14         95 
 45.16         88 
 45.18         104 
 45.2          141 
 45.22         181 
 45.24         174 
 45.26         237 
 45.28         260 
 45.3          289 
 45.32         297 
 45.34         290 
 45.36         351 
 45.38         348 
 45.4          352 
 45.42         316 
 45.44         335 
 45.46         333 
 45.48         357 
 45.5          307 
 45.52         292 
 45.54         279 
 45.56         284 
 45.58         273 
 45.6          266 
 45.62         203 
 45.64         196 
 45.66         214 
 45.68         238 
 45.7          233 
 45.72         233 
 45.74         259 
 45.76         271 
 45.78         269 
 45.8          281 
 45.82         317 
 45.84         262 
 45.86         287 
 45.88         285 
 45.9          262 
 45.92         254 
 45.94         227 
 45.96         207 
 45.98         205 
 46            196 
 46.02         161 
 46.04         162 
 46.06         152 
 46.08         143 
 46.1          109 
 46.12         107 
 46.14         91 
 46.16         100 
 46.18         90 
 46.2          103 
 46.22         87 
 46.24         89 
 46.26         101 
 46.28         130 
 46.3          105 
 46.32         130 
 46.34         147 
 46.36         147 
 46.38         145 
 46.4          167 
 46.42         172 
 46.44         191 
 46.46         186 
 46.48         199 
 46.5          185 
 46.52         192 
 46.54         209 
 46.56         199 
 46.58         189 
 46.6          167 
 46.62         165 
 46.64         133 
 46.66         117 
 46.68         143 
 46.7          114 
 46.72         83 
 46.74         84 
 46.76         74 
 46.78         57 
 46.8          62 
 46.82         58 
 46.84         47 
 46.86         41 
 46.88         34 
 46.9          31 
 46.92         42 
 46.94         35 
 46.96         42 
 46.98         43 
 47            38 
 47.02         38 
 47.04         37 
 47.06         31 
 47.08         35 
 47.1          24 
 47.12         38 
 47.14         44 
 47.16         37 
 47.18         41 
 47.2          24 
 47.22         35 
 47.24         29 
 47.26         23 
 47.28         36 
 47.3          32 
 47.32         28 
 47.34         40 
 47.36         36 
 47.38         31 
 47.4          22 
 47.42         29 
 47.44         38 
 47.46         28 
 47.48         38 
 47.5          35 
 47.52         41 
 47.54         28 
 47.56         36 
 47.58         35 
 47.6          26 
 47.62         30 
 47.64         28 
 47.66         38 
 47.68         31 
 47.7          38 
 47.72         45 
 47.74         43 
 47.76         37 
 47.78         51 
 47.8          40 
 47.82         40 
 47.84         39 
 47.86         25 
 47.88         48 
 47.9          46 
 47.92         42 
 47.94         37 
 47.96         37 
 47.98         40 
 48            34 
 48.02         39 
 48.04         47 
 48.06         50 
 48.08         46 
 48.1          35 
 48.12         50 
 48.14         50 
 48.16         55 
 48.18         53 
 48.2          59 
 48.22         52 
 48.24         69 
 48.26         59 
 48.28         58 
 48.3          58 
 48.32         49 
 48.34         55 
 48.36         68 
 48.38         68 
 48.4          67 
 48.42         69 
 48.44         83 
 48.46         94 
 48.48         74 
 48.5          95 
 48.52         92 
 48.54         86 
 48.56         107 
 48.58         119 
 48.6          129 
 48.62         175 
 48.64         177 
 48.66         235 
 48.68         273 
 48.7          331 
 48.72         427 
 48.74         508 
 48.76         655 
 48.78         770 
 48.8          913 
 48.82         1043 
 48.84         1069 
 48.86         1126 
 48.88         1174 
 48.9          1150 
 48.92         1210 
 48.94         1071 
 48.96         1061 
 48.98         970 
 49            980 
 49.02         906 
 49.04         885 
 49.06         871 
 49.08         824 
 49.1          803 
 49.12         836 
 49.14         821 
 49.16         765 
 49.18         742 
 49.2          725 
 49.22         681 
 49.24         624 
 49.26         511 
 49.28         483 
 49.3          364 
 49.32         346 
 49.34         290 
 49.36         219 
 49.38         201 
 49.4          135 
 49.42         138 
 49.44         92 
 49.46         88 
 49.48         68 
 49.5          75 
 49.52         61 
 49.54         61 
 49.56         57 
 49.58         47 
 49.6          43 
 49.62         50 
 49.64         46 
 49.66         40 
 49.68         50 
 49.7          51 
 49.72         45 
 49.74         47 
 49.76         36 
 49.78         45 
 49.8          46 
 49.82         48 
 49.84         40 
 49.86         39 
 49.88         31 
 49.9          32 
 49.92         32 
 49.94         32 
 49.96         56 
 49.98         30 
 50            31 
 50.02         33 
 50.04         33 
 50.06         40 
 50.08         35 
 50.1          28 
 50.12         28 
 50.14         39 
 50.16         39 
 50.18         40 
 50.2          34 
 50.22         34 
 50.24         33 
 50.26         27 
 50.28         39 
 50.3          31 
 50.32         26 
 50.34         44 
 50.36         39 
 50.38         29 
 50.4          41 
 50.42         32 
 50.44         37 
 50.46         40 
 50.48         42 
 50.5          30 
 50.52         30 
 50.54         37 
 50.56         37 
 50.58         31 
 50.6          24 
 50.62         40 
 50.64         44 
 50.66         44 
 50.68         37 
 50.7          42 
 50.72         48 
 50.74         31 
 50.76         52 
 50.78         46 
 50.8          46 
 50.82         56 
 50.84         55 
 50.86         65 
 50.88         95 
 50.9          71 
 50.92         122 
 50.94         134 
 50.96         149 
 50.98         181 
 51            202 
 51.02         207 
 51.04         221 
 51.06         262 
 51.08         248 
 51.1          282 
 51.12         250 
 51.14         275 
 51.16         287 
 51.18         248 
 51.2          276 
 51.22         250 
 51.24         255 
 51.26         302 
 51.28         251 
 51.3          267 
 51.32         246 
 51.34         296 
 51.36         278 
 51.38         254 
 51.4          304 
 51.42         279 
 51.44         290 
 51.46         327 
 51.48         386 
 51.5          474 
 51.52         533 
 51.54         657 
 51.56         707 
 51.58         825 
 51.6          859 
 51.62         941 
 51.64         973 
 51.66         990 
 51.68         893 
 51.7          871 
 51.72         832 
 51.74         843 
 51.76         815 
 51.78         752 
 51.8          680 
 51.82         647 
 51.84         544 
 51.86         475 
 51.88         427 
 51.9          393 
 51.92         356 
 51.94         284 
 51.96         248 
 51.98         194 
 52            160 
 52.02         137 
 52.04         128 
 52.06         98 
 52.08         100 
 52.1          68 
 52.12         69 
 52.14         62 
 52.16         54 
 52.18         43 
 52.2          58 
 52.22         41 
 52.24         49 
 52.26         50 
 52.28         37 
 52.3          37 
 52.32         42 
 52.34         43 
 52.36         31 
 52.38         52 
 52.4          44 
 52.42         59 
 52.44         50 
 52.46         42 
 52.48         34 
 52.5          30 
 52.52         39 
 52.54         39 
 52.56         41 
 52.58         37 
 52.6          50 
 52.62         35 
 52.64         29 
 52.66         44 
 52.68         43 
 52.7          28 
 52.72         43 
 52.74         44 
 52.76         30 
 52.78         47 
 52.8          33 
 52.82         34 
 52.84         34 
 52.86         34 
 52.88         26 
 52.9          37 
 52.92         46 
 52.94         49 
 52.96         50 
 52.98         44 
 53            46 
 53.02         39 
 53.04         44 
 53.06         39 
 53.08         46 
 53.1          43 
 53.12         43 
 53.14         51 
 53.16         57 
 53.18         49 
 53.2          57 
 53.22         53 
 53.24         66 
 53.26         65 
 53.28         76 
 53.3          84 
 53.32         77 
 53.34         87 
 53.36         74 
 53.38         93 
 53.4          100 
 53.42         102 
 53.44         87 
 53.46         98 
 53.48         91 
 53.5          102 
 53.52         87 
 53.54         107 
 53.56         111 
 53.58         124 
 53.6          91 
 53.62         130 
 53.64         106 
 53.66         101 
 53.68         64 
 53.7          72 
 53.72         96 
 53.74         88 
 53.76         67 
 53.78         77 
 53.8          63 
 53.82         60 
 53.84         53 
 53.86         51 
 53.88         47 
 53.9          44 
 53.92         54 
 53.94         59 
 53.96         32 
 53.98         31 
 54            29 
 54.02         45 
 54.04         50 
 54.06         32 
 54.08         36 
 54.1          38 
 54.12         44 
 54.14         38 
 54.16         42 
 54.18         49 
 54.2          50 
 54.22         51 
 54.24         30 
 54.26         44 
 54.28         31 
 54.3          40 
 54.32         40 
 54.34         46 
 54.36         40 
 54.38         42 
 54.4          24 
 54.42         45 
 54.44         40 
 54.46         35 
 54.48         33 
 54.5          41 
 54.52         33 
 54.54         34 
 54.56         34 
 54.58         33 
 54.6          32 
 54.62         43 
 54.64         33 
 54.66         31 
 54.68         31 
 54.7          28 
 54.72         37 
 54.74         36 
 54.76         41 
 54.78         37 
 54.8          32 
 54.82         25 
 54.84         37 
 54.86         38 
 54.88         39 
 54.9          35 
 54.92         37 
 54.94         32 
 54.96         43 
 54.98         40 
 55            49 
 55.02         42 
 55.04         32 
 55.06         45 
 55.08         46 
 55.1          29 
 55.12         37 
 55.14         38 
 55.16         20 
 55.18         34 
 55.2          37 
 55.22         33 
 55.24         43 
 55.26         50 
 55.28         48 
 55.3          37 
 55.32         41 
 55.34         56 
 55.36         45 
 55.38         50 
 55.4          49 
 55.42         47 
 55.44         45 
 55.46         44 
 55.48         49 
 55.5          57 
 55.52         50 
 55.54         40 
 55.56         53 
 55.58         62 
 55.6          52 
 55.62         61 
 55.64         70 
 55.66         88 
 55.68         99 
 55.7          101 
 55.72         141 
 55.74         169 
 55.76         169 
 55.78         199 
 55.8          242 
 55.82         305 
 55.84         308 
 55.86         316 
 55.88         315 
 55.9          332 
 55.92         357 
 55.94         362 
 55.96         363 
 55.98         397 
 56            406 
 56.02         447 
 56.04         460 
 56.06         493 
 56.08         527 
 56.1          542 
 56.12         597 
 56.14         644 
 56.16         669 
 56.18         640 
 56.2          696 
 56.22         686 
 56.24         705 
 56.26         665 
 56.28         617 
 56.3          565 
 56.32         533 
 56.34         494 
 56.36         451 
 56.38         404 
 56.4          319 
 56.42         280 
 56.44         268 
 56.46         223 
 56.48         173 
 56.5          139 
 56.52         130 
 56.54         95 
 56.56         76 
 56.58         72 
 56.6          70 
 56.62         76 
 56.64         58 
 56.66         56 
 56.68         56 
 56.7          63 
 56.72         50 
 56.74         60 
 56.76         39 
 56.78         64 
 56.8          50 
 56.82         38 
 56.84         51 
 56.86         38 
 56.88         40 
 56.9          44 
 56.92         51 
 56.94         23 
 56.96         46 
 56.98         37 
 57            37 
 57.02         39 
 57.04         32 
 57.06         42 
 57.08         35 
 57.1          33 
 57.12         40 
 57.14         30 
 57.16         39 
 57.18         32 
 57.2          32 
 57.22         34 
 57.24         46 
 57.26         40 
 57.28         38 
 57.3          28 
 57.32         35 
 57.34         33 
 57.36         23 
 57.38         27 
 57.4          27 
 57.42         34 
 57.44         32 
 57.46         30 
 57.48         47 
 57.5          23 
 57.52         31 
 57.54         37 
 57.56         35 
 57.58         26 
 57.6          34 
 57.62         36 
 57.64         40 
 57.66         45 
 57.68         33 
 57.7          25 
 57.72         32 
 57.74         27 
 57.76         31 
 57.78         34 
 57.8          36 
 57.82         36 
 57.84         39 
 57.86         45 
 57.88         38 
 57.9          36 
 57.92         53 
 57.94         55 
 57.96         48 
 57.98         41 
 58            43 
 58.02         60 
 58.04         53 
 58.06         56 
 58.08         70 
 58.1          92 
 58.12         90 
 58.14         90 
 58.16         94 
 58.18         120 
 58.2          136 
 58.22         154 
 58.24         141 
 58.26         154 
 58.28         149 
 58.3          159 
 58.32         202 
 58.34         177 
 58.36         180 
 58.38         188 
 58.4          205 
 58.42         197 
 58.44         194 
 58.46         199 
 58.48         196 
 58.5          218 
 58.52         213 
 58.54         222 
 58.56         224 
 58.58         265 
 58.6          299 
 58.62         344 
 58.64         423 
 58.66         498 
 58.68         524 
 58.7          550 
 58.72         628 
 58.74         655 
 58.76         704 
 58.78         718 
 58.8          776 
 58.82         732 
 58.84         760 
 58.86         783 
 58.88         863 
 58.9          923 
 58.92         1015 
 58.94         1105 
 58.96         1190 
 58.98         1318 
 59            1255 
 59.02         1387 
 59.04         1324 
 59.06         1332 
 59.08         1341 
 59.1          1247 
 59.12         1139 
 59.14         1129 
 59.16         1101 
 59.18         992 
 59.2          860 
 59.22         798 
 59.24         751 
 59.26         644 
 59.28         587 
 59.3          452 
 59.32         381 
 59.34         294 
 59.36         265 
 59.38         246 
 59.4          194 
 59.42         149 
 59.44         139 
 59.46         123 
 59.48         89 
 59.5          79 
 59.52         65 
 59.54         67 
 59.56         80 
 59.58         65 
 59.6          61 
 59.62         61 
 59.64         73 
 59.66         52 
 59.68         65 
 59.7          60 
 59.72         43 
 59.74         41 
 59.76         54 
 59.78         59 
 59.8          50 
 59.82         61 
 59.84         40 
 59.86         41 
 59.88         33 
 59.9          58 
 59.92         41 
 59.94         44 
 59.96         46 
 59.98         41 
 60            50 
 60.02         47 
 60.04         37 
 60.06         52 
 60.08         52 
 60.1          51 
 60.12         45 
 60.14         38 
 60.16         46 
 60.18         45 
 60.2          53 
 60.22         62 
 60.24         73 
 60.26         59 
 60.28         85 
 60.3          91 
 60.32         73 
 60.34         76 
 60.36         105 
 60.38         79 
 60.4          98 
 60.42         118 
 60.44         114 
 60.46         107 
 60.48         108 
 60.5          128 
 60.52         133 
 60.54         140 
 60.56         168 
 60.58         194 
 60.6          216 
 60.62         215 
 60.64         232 
 60.66         296 
 60.68         286 
 60.7          275 
 60.72         300 
 60.74         289 
 60.76         332 
 60.78         292 
 60.8          311 
 60.82         292 
 60.84         260 
 60.86         255 
 60.88         230 
 60.9          209 
 60.92         189 
 60.94         175 
 60.96         154 
 60.98         134 
 61            132 
 61.02         102 
 61.04         94 
 61.06         67 
 61.08         71 
 61.1          63 
 61.12         57 
 61.14         52 
 61.16         54 
 61.18         49 
 61.2          50 
 61.22         43 
 61.24         45 
 61.26         51 
 61.28         35 
 61.3          41 
 61.32         44 
 61.34         43 
 61.36         50 
 61.38         44 
 61.4          35 
 61.42         52 
 61.44         45 
 61.46         39 
 61.48         49 
 61.5          40 
 61.52         36 
 61.54         30 
 61.56         42 
 61.58         35 
 61.6          39 
 61.62         39 
 61.64         34 
 61.66         34 
 61.68         41 
 61.7          34 
 61.72         29 
 61.74         36 
 61.76         37 
 61.78         40 
 61.8          31 
 61.82         46 
 61.84         39 
 61.86         37 
 61.88         48 
 61.9          40 
 61.92         37 
 61.94         31 
 61.96         40 
 61.98         34 
 62            43 
 62.02         34 
 62.04         30 
 62.06         35 
 62.08         35 
 62.1          27 
 62.12         41 
 62.14         34 
 62.16         45 
 62.18         45 
 62.2          39 
 62.22         32 
 62.24         40 
 62.26         25 
 62.28         31 
 62.3          33 
 62.32         33 
 62.34         35 
 62.36         34 
 62.38         23 
 62.4          38 
 62.42         28 
 62.44         24 
 62.46         23 
 62.48         32 
 62.5          21 
 62.52         31 
 62.54         25 
 62.56         26 
 62.58         35 
 62.6          21 
 62.62         31 
 62.64         33 
 62.66         28 
 62.68         31 
 62.7          29 
 62.72         31 
 62.74         26 
 62.76         31 
 62.78         32 
 62.8          30 
 62.82         40 
 62.84         39 
 62.86         28 
 62.88         39 
 62.9          38 
 62.92         45 
 62.94         40 
 62.96         39 
 62.98         57 
 63            40 
 63.02         38 
 63.04         61 
 63.06         57 
 63.08         52 
 63.1          85 
 63.12         98 
 63.14         124 
 63.16         135 
 63.18         160 
 63.2          196 
 63.22         233 
 63.24         259 
 63.26         284 
 63.28         300 
 63.3          347 
 63.32         318 
 63.34         284 
 63.36         243 
 63.38         262 
 63.4          256 
 63.42         197 
 63.44         208 
 63.46         196 
 63.48         193 
 63.5          171 
 63.52         158 
 63.54         131 
 63.56         127 
 63.58         101 
 63.6          88 
 63.62         62 
 63.64         62 
 63.66         53 
 63.68         54 
 63.7          41 
 63.72         62 
 63.74         51 
 63.76         48 
 63.78         43 
 63.8          46 
 63.82         45 
 63.84         35 
 63.86         45 
 63.88         45 
 63.9          44 
 63.92         40 
 63.94         41 
 63.96         33 
 63.98         52 
 64            41 
 64.02         48 
 64.04         45 
 64.06         47 
 64.08         40 
 64.1          44 
 64.12         34 
 64.14         47 
 64.16         41 
 64.18         42 
 64.2          34 
 64.22         44 
 64.24         43 
 64.26         42 
 64.28         53 
 64.3          41 
 64.32         34 
 64.34         51 
 64.36         37 
 64.38         55 
 64.4          54 
 64.42         54 
 64.44         50 
 64.46         45 
 64.48         57 
 64.5          67 
 64.52         52 
 64.54         69 
 64.56         69 
 64.58         61 
 64.6          75 
 64.62         77 
 64.64         82 
 64.66         106 
 64.68         81 
 64.7          104 
 64.72         111 
 64.74         108 
 64.76         119 
 64.78         122 
 64.8          119 
 64.82         128 
 64.84         133 
 64.86         151 
 64.88         164 
 64.9          168 
 64.92         187 
 64.94         185 
 64.96         194 
 64.98         190 
 65            221 
 65.02         205 
 65.04         231 
 65.06         212 
 65.08         225 
 65.1          242 
 65.12         247 
 65.14         265 
 65.16         269 
 65.18         345 
 65.2          376 
 65.22         400 
 65.24         413 
 65.26         469 
 65.28         505 
 65.3          515 
 65.32         457 
 65.34         524 
 65.36         470 
 65.38         539 
 65.4          516 
 65.42         504 
 65.44         468 
 65.46         457 
 65.48         421 
 65.5          504 
 65.52         502 
 65.54         509 
 65.56         530 
 65.58         518 
 65.6          565 
 65.62         506 
 65.64         491 
 65.66         500 
 65.68         494 
 65.7          410 
 65.72         446 
 65.74         376 
 65.76         392 
 65.78         368 
 65.8          320 
 65.82         313 
 65.84         285 
 65.86         285 
 65.88         207 
 65.9          196 
 65.92         157 
 65.94         172 
 65.96         139 
 65.98         129 
 66            98 
 66.02         90 
 66.04         89 
 66.06         71 
 66.08         68 
 66.1          72 
 66.12         78 
 66.14         52 
 66.16         52 
 66.18         44 
 66.2          52 
 66.22         56 
 66.24         44 
 66.26         48 
 66.28         54 
 66.3          53 
 66.32         49 
 66.34         49 
 66.36         39 
 66.38         46 
 66.4          52 
 66.42         34 
 66.44         35 
 66.46         29 
 66.48         45 
 66.5          38 
 66.52         37 
 66.54         44 
 66.56         45 
 66.58         44 
 66.6          45 
 66.62         53 
 66.64         52 
 66.66         41 
 66.68         54 
 66.7          40 
 66.72         44 
 66.74         42 
 66.76         39 
 66.78         36 
 66.8          29 
 66.82         36 
 66.84         38 
 66.86         38 
 66.88         51 
 66.9          45 
 66.92         39 
 66.94         28 
 66.96         43 
 66.98         48 
 67            32 
 67.02         45 
 67.04         42 
 67.06         46 
 67.08         43 
 67.1          45 
 67.12         45 
 67.14         42 
 67.16         44 
 67.18         46 
 67.2          46 
 67.22         31 
 67.24         39 
 67.26         43 
 67.28         46 
 67.3          49 
 67.32         48 
 67.34         49 
 67.36         56 
 67.38         38 
 67.4          39 
 67.42         55 
 67.44         58 
 67.46         63 
 67.48         79 
 67.5          68 
 67.52         70 
 67.54         102 
 67.56         93 
 67.58         116 
 67.6          142 
 67.62         156 
 67.64         174 
 67.66         180 
 67.68         199 
 67.7          207 
 67.72         209 
 67.74         245 
 67.76         298 
 67.78         266 
 67.8          315 
 67.82         319 
 67.84         362 
 67.86         406 
 67.88         400 
 67.9          424 
 67.92         414 
 67.94         385 
 67.96         378 
 67.98         366 
 68            399 
 68.02         355 
 68.04         380 
 68.06         344 
 68.08         351 
 68.1          273 
 68.12         274 
 68.14         247 
 68.16         220 
 68.18         212 
 68.2          185 
 68.22         175 
 68.24         159 
 68.26         128 
 68.28         118 
 68.3          105 
 68.32         96 
 68.34         70 
 68.36         83 
 68.38         65 
 68.4          57 
 68.42         56 
 68.44         73 
 68.46         51 
 68.48         49 
 68.5          56 
 68.52         49 
 68.54         43 
 68.56         60 
 68.58         48 
 68.6          49 
 68.62         44 
 68.64         49 
 68.66         61 
 68.68         63 
 68.7          70 
 68.72         73 
 68.74         82 
 68.76         78 
 68.78         82 
 68.8          85 
 68.82         85 
 68.84         127 
 68.86         123 
 68.88         131 
 68.9          126 
 68.92         162 
 68.94         178 
 68.96         193 
 68.98         193 
 69            197 
 69.02         199 
 69.04         233 
 69.06         229 
 69.08         234 
 69.1          220 
 69.12         266 
 69.14         234 
 69.16         248 
 69.18         249 
 69.2          245 
 69.22         241 
 69.24         251 
 69.26         223 
 69.28         240 
 69.3          219 
 69.32         223 
 69.34         213 
 69.36         214 
 69.38         215 
 69.4          206 
 69.42         206 
 69.44         209 
 69.46         192 
 69.48         191 
 69.5          198 
 69.52         247 
 69.54         232 
 69.56         248 
 69.58         285 
 69.6          279 
 69.62         267 
 69.64         288 
 69.66         284 
 69.68         281 
 69.7          251 
 69.72         257 
 69.74         219 
 69.76         220 
 69.78         220 
 69.8          192 
 69.82         182 
 69.84         172 
 69.86         156 
 69.88         127 
 69.9          121 
 69.92         118 
 69.94         111 
 69.96         74 
 69.98         73 
 70            71 
 70.02         70 
 70.04         72 
 70.06         68 
 70.08         55 
 70.1          49 
 70.12         42 
 70.14         37 
 70.16         44 
 70.18         44 
 70.2          50 
 70.22         49 
 70.24         51 
 70.26         40 
 70.28         29 
 70.3          46 
 70.32         40 
 70.34         64 
 70.36         41 
 70.38         54 
 70.4          44 
 70.42         33 
 70.44         37 
 70.46         43 
 70.48         37 
 70.5          34 
 70.52         34 
 70.54         34 
 70.56         25 
 70.58         37 
 70.6          37 
 70.62         32 
 70.64         36 
 70.66         51 
 70.68         37 
 70.7          41 
 70.72         30 
 70.74         37 
 70.76         22 
 70.78         42 
 70.8          36 
 70.82         36 
 70.84         47 
 70.86         30 
 70.88         40 
 70.9          32 
 70.92         37 
 70.94         41 
 70.96         41 
 70.98         34 
 71            33 
 71.02         34 
 71.04         38 
 71.06         22 
 71.08         41 
 71.1          34 
 71.12         34 
 71.14         30 
 71.16         46 
 71.18         43 
 71.2          45 
 71.22         45 
 71.24         45 
 71.26         53 
 71.28         50 
 71.3          59 
 71.32         72 
 71.34         59 
 71.36         73 
 71.38         104 
 71.4          90 
 71.42         106 
 71.44         118 
 71.46         131 
 71.48         130 
 71.5          152 
 71.52         165 
 71.54         162 
 71.56         172 
 71.58         157 
 71.6          151 
 71.62         146 
 71.64         137 
 71.66         148 
 71.68         135 
 71.7          117 
 71.72         129 
 71.74         113 
 71.76         122 
 71.78         103 
 71.8          105 
 71.82         111 
 71.84         91 
 71.86         100 
 71.88         106 
 71.9          106 
 71.92         89 
 71.94         97 
 71.96         113 
 71.98         112 
 72            142 
 72.02         163 
 72.04         189 
 72.06         197 
 72.08         224 
 72.1          221 
 72.12         222 
 72.14         232 
 72.16         227 
 72.18         206 
 72.2          203 
 72.22         207 
 72.24         203 
 72.26         198 
 72.28         185 
 72.3          186 
 72.32         187 
 72.34         169 
 72.36         158 
 72.38         147 
 72.4          153 
 72.42         155 
 72.44         138 
 72.46         136 
 72.48         143 
 72.5          122 
 72.52         128 
 72.54         116 
 72.56         143 
 72.58         128 
 72.6          133 
 72.62         122 
 72.64         131 
 72.66         157 
 72.68         135 
 72.7          152 
 72.72         132 
 72.74         156 
 72.76         159 
 72.78         146 
 72.8          147 
 72.82         156 
 72.84         140 
 72.86         138 
 72.88         155 
 72.9          124 
 72.92         147 
 72.94         135 
 72.96         126 
 72.98         133 
 73            130 
 73.02         127 
 73.04         117 
 73.06         123 
 73.08         119 
 73.1          133 
 73.12         140 
 73.14         139 
 73.16         147 
 73.18         168 
 73.2          165 
 73.22         200 
 73.24         201 
 73.26         238 
 73.28         216 
 73.3          234 
 73.32         270 
 73.34         246 
 73.36         266 
 73.38         274 
 73.4          295 
 73.42         306 
 73.44         284 
 73.46         271 
 73.48         247 
 73.5          280 
 73.52         304 
 73.54         313 
 73.56         276 
 73.58         289 
 73.6          285 
 73.62         290 
 73.64         293 
 73.66         299 
 73.68         314 
 73.7          289 
 73.72         320 
 73.74         270 
 73.76         309 
 73.78         325 
 73.8          322 
 73.82         316 
 73.84         264 
 73.86         274 
 73.88         278 
 73.9          241 
 73.92         215 
 73.93999      205 
 73.96         216 
 73.98         183 
 74            171 
 74.02         169 
 74.04         175 
 74.06         158 
 74.08         134 
 74.1          121 
 74.12         139 
 74.14         114 
 74.16         103 
 74.18         92 
 74.2          74 
 74.22         83 
 74.24         72 
 74.26         59 
 74.28         50 
 74.3          57 
 74.32         58 
 74.34         54 
 74.36         58 
 74.38         52 
 74.4          57 
 74.42         49 
 74.43999      48 
 74.46         42 
 74.48         43 
 74.5          34 
 74.52         36 
 74.54         34 
 74.56         28 
 74.58         41 
 74.6          32 
 74.62         27 
 74.64         33 
 74.66         33 
 74.68         41 
 74.7          40 
 74.72         37 
 74.74         41 
 74.76         26 
 74.78         29 
 74.8          33 
 74.82         41 
 74.84         45 
 74.86         50 
 74.88         23 
 74.9          35 
 74.92         34 
 74.93999      37 
 74.96         34 
 74.98         35 
 75            26 
