LAGP 5 900°C  Original Data
 3151 
 12            257 
 12.02         222 
 12.04         222 
 12.06         218 
 12.08         214 
 12.1          243 
 12.12         248 
 12.14         221 
 12.16         252 
 12.18         207 
 12.2          235 
 12.22         243 
 12.24         272 
 12.26         236 
 12.28         256 
 12.3          283 
 12.32         240 
 12.34         242 
 12.36         223 
 12.38         249 
 12.4          235 
 12.42         232 
 12.44         240 
 12.46         241 
 12.48         215 
 12.5          259 
 12.52         230 
 12.54         259 
 12.56         198 
 12.58         238 
 12.6          230 
 12.62         243 
 12.64         259 
 12.66         235 
 12.68         235 
 12.7          233 
 12.72         241 
 12.74         224 
 12.76         227 
 12.78         252 
 12.8          197 
 12.82         244 
 12.84         244 
 12.86         240 
 12.88         203 
 12.9          218 
 12.92         230 
 12.94         234 
 12.96         217 
 12.98         224 
 13            199 
 13.02         243 
 13.04         220 
 13.06         218 
 13.08         230 
 13.1          249 
 13.12         239 
 13.14         236 
 13.16         226 
 13.18         212 
 13.2          232 
 13.22         235 
 13.24         222 
 13.26         228 
 13.28         211 
 13.3          217 
 13.32         227 
 13.34         215 
 13.36         223 
 13.38         206 
 13.4          225 
 13.42         197 
 13.44         223 
 13.46         248 
 13.48         238 
 13.5          221 
 13.52         213 
 13.54         231 
 13.56         224 
 13.58         234 
 13.6          221 
 13.62         230 
 13.64         241 
 13.66         206 
 13.68         217 
 13.7          239 
 13.72         228 
 13.74         212 
 13.76         210 
 13.78         201 
 13.8          218 
 13.82         234 
 13.84         234 
 13.86         213 
 13.88         174 
 13.9          205 
 13.92         188 
 13.94         214 
 13.96         181 
 13.98         206 
 14            223 
 14.02         193 
 14.04         215 
 14.06         202 
 14.08         197 
 14.1          170 
 14.12         195 
 14.14         193 
 14.16         210 
 14.18         169 
 14.2          218 
 14.22         185 
 14.24         192 
 14.26         171 
 14.28         187 
 14.3          196 
 14.32         199 
 14.34         209 
 14.36         216 
 14.38         207 
 14.4          200 
 14.42         229 
 14.44         241 
 14.46         228 
 14.48         216 
 14.5          199 
 14.52         236 
 14.54         235 
 14.56         249 
 14.58         280 
 14.6          299 
 14.62         304 
 14.64         342 
 14.66         362 
 14.68         361 
 14.7          415 
 14.72         433 
 14.74         501 
 14.76         527 
 14.78         627 
 14.8          675 
 14.82         778 
 14.84         823 
 14.86         922 
 14.88         1092 
 14.9          1280 
 14.92         1424 
 14.94         1729 
 14.96         1893 
 14.98         2266 
 15            2612 
 15.02         3057 
 15.04         3710 
 15.06         4389 
 15.08         4990 
 15.1          5273 
 15.12         5466 
 15.14         5144 
 15.16         4552 
 15.18         3495 
 15.2          2517 
 15.22         1599 
 15.24         1016 
 15.26         623 
 15.28         400 
 15.3          310 
 15.32         287 
 15.34         268 
 15.36         225 
 15.38         178 
 15.4          210 
 15.42         195 
 15.44         174 
 15.46         169 
 15.48         178 
 15.5          187 
 15.52         190 
 15.54         183 
 15.56         183 
 15.58         149 
 15.6          177 
 15.62         131 
 15.64         171 
 15.66         156 
 15.68         152 
 15.7          171 
 15.72         154 
 15.74         161 
 15.76         146 
 15.78         154 
 15.8          153 
 15.82         148 
 15.84         155 
 15.86         146 
 15.88         155 
 15.9          143 
 15.92         169 
 15.94         150 
 15.96         170 
 15.98         128 
 16            143 
 16.02         165 
 16.04         149 
 16.06         180 
 16.08         155 
 16.1          159 
 16.12         146 
 16.14         159 
 16.16         135 
 16.18         142 
 16.2          133 
 16.22         121 
 16.24         142 
 16.26         164 
 16.28         174 
 16.3          140 
 16.32         140 
 16.34         145 
 16.36         137 
 16.38         139 
 16.4          157 
 16.42         161 
 16.44         148 
 16.46         144 
 16.48         135 
 16.5          149 
 16.52         147 
 16.54         160 
 16.56         143 
 16.58         143 
 16.6          151 
 16.62         150 
 16.64         136 
 16.66         142 
 16.68         133 
 16.7          162 
 16.72         144 
 16.74         150 
 16.76         129 
 16.78         123 
 16.8          155 
 16.82         143 
 16.84         145 
 16.86         160 
 16.88         129 
 16.9          159 
 16.92         126 
 16.94         140 
 16.96         150 
 16.98         145 
 17            172 
 17.02         160 
 17.04         124 
 17.06         136 
 17.08         145 
 17.1          126 
 17.12         143 
 17.14         134 
 17.16         149 
 17.18         153 
 17.2          141 
 17.22         148 
 17.24         137 
 17.26         146 
 17.28         125 
 17.3          164 
 17.32         144 
 17.34         153 
 17.36         147 
 17.38         160 
 17.4          172 
 17.42         154 
 17.44         169 
 17.46         145 
 17.48         187 
 17.5          178 
 17.52         192 
 17.54         188 
 17.56         189 
 17.58         206 
 17.6          219 
 17.62         201 
 17.64         223 
 17.66         227 
 17.68         217 
 17.7          213 
 17.72         224 
 17.74         253 
 17.76         246 
 17.78         237 
 17.8          251 
 17.82         263 
 17.84         261 
 17.86         262 
 17.88         223 
 17.9          218 
 17.92         207 
 17.94         187 
 17.96         172 
 17.98         149 
 18            166 
 18.02         144 
 18.04         154 
 18.06         145 
 18.08         139 
 18.1          153 
 18.12         150 
 18.14         140 
 18.16         145 
 18.18         136 
 18.2          138 
 18.22         116 
 18.24         140 
 18.26         138 
 18.28         157 
 18.3          131 
 18.32         160 
 18.34         123 
 18.36         145 
 18.38         138 
 18.4          141 
 18.42         114 
 18.44         139 
 18.46         153 
 18.48         134 
 18.5          142 
 18.52         126 
 18.54         136 
 18.56         146 
 18.58         140 
 18.6          137 
 18.62         142 
 18.64         139 
 18.66         127 
 18.68         139 
 18.7          133 
 18.72         136 
 18.74         145 
 18.76         131 
 18.78         130 
 18.8          149 
 18.82         139 
 18.84         137 
 18.86         151 
 18.88         138 
 18.9          133 
 18.92         123 
 18.94         153 
 18.96         113 
 18.98         136 
 19            143 
 19.02         145 
 19.04         128 
 19.06         132 
 19.08         117 
 19.1          139 
 19.12         124 
 19.14         133 
 19.16         123 
 19.18         145 
 19.2          133 
 19.22         121 
 19.24         143 
 19.26         138 
 19.28         121 
 19.3          158 
 19.32         130 
 19.34         125 
 19.36         151 
 19.38         143 
 19.4          122 
 19.42         137 
 19.44         136 
 19.46         138 
 19.48         127 
 19.5          143 
 19.52         126 
 19.54         131 
 19.56         139 
 19.58         132 
 19.6          109 
 19.62         148 
 19.64         123 
 19.66         127 
 19.68         141 
 19.7          144 
 19.72         138 
 19.74         142 
 19.76         151 
 19.78         159 
 19.8          124 
 19.82         141 
 19.84         137 
 19.86         163 
 19.88         161 
 19.9          158 
 19.92         127 
 19.94         143 
 19.96         131 
 19.98         129 
 20            160 
 20.02         132 
 20.04         140 
 20.06         127 
 20.08         152 
 20.1          123 
 20.12         166 
 20.14         129 
 20.16         149 
 20.18         160 
 20.2          170 
 20.22         139 
 20.24         170 
 20.26         153 
 20.28         196 
 20.3          183 
 20.32         186 
 20.34         210 
 20.36         215 
 20.38         227 
 20.4          235 
 20.42         265 
 20.44         276 
 20.46         292 
 20.48         293 
 20.5          279 
 20.52         282 
 20.54         258 
 20.56         258 
 20.58         243 
 20.6          241 
 20.62         214 
 20.64         243 
 20.66         216 
 20.68         200 
 20.7          208 
 20.72         228 
 20.74         237 
 20.76         262 
 20.78         288 
 20.8          299 
 20.82         308 
 20.84         346 
 20.86         407 
 20.88         462 
 20.9          531 
 20.92         582 
 20.94         661 
 20.96         742 
 20.98         906 
 21            1029 
 21.02         1179 
 21.04         1446 
 21.06         1707 
 21.08         1947 
 21.1          2374 
 21.12         2798 
 21.14         3569 
 21.16         4252 
 21.18         5192 
 21.2          6364 
 21.22         7872 
 21.24         9695 
 21.26         11915 
 21.28         14077 
 21.3          15817 
 21.32         17626 
 21.34         18281 
 21.36         18304 
 21.38         16830 
 21.4          15426 
 21.42         13411 
 21.44         12308 
 21.46         11693 
 21.48         11869 
 21.5          12443 
 21.52         12566 
 21.54         12700 
 21.56         11833 
 21.58         10462 
 21.6          8635 
 21.62         6623 
 21.64         4830 
 21.66         3463 
 21.68         2518 
 21.7          2031 
 21.72         1750 
 21.74         1690 
 21.76         1720 
 21.78         1630 
 21.8          1656 
 21.82         1587 
 21.84         1611 
 21.86         1468 
 21.88         1281 
 21.9          1111 
 21.92         870 
 21.94         675 
 21.96         489 
 21.98         351 
 22            331 
 22.02         289 
 22.04         252 
 22.06         210 
 22.08         213 
 22.1          200 
 22.12         189 
 22.14         156 
 22.16         190 
 22.18         155 
 22.2          161 
 22.22         176 
 22.24         172 
 22.26         167 
 22.28         176 
 22.3          153 
 22.32         162 
 22.34         166 
 22.36         144 
 22.38         157 
 22.4          143 
 22.42         156 
 22.44         160 
 22.46         154 
 22.48         155 
 22.5          166 
 22.52         158 
 22.54         160 
 22.56         140 
 22.58         154 
 22.6          160 
 22.62         150 
 22.64         144 
 22.66         157 
 22.68         142 
 22.7          133 
 22.72         157 
 22.74         153 
 22.76         129 
 22.78         162 
 22.8          161 
 22.82         155 
 22.84         141 
 22.86         147 
 22.88         163 
 22.9          170 
 22.92         140 
 22.94         141 
 22.96         134 
 22.98         135 
 23            146 
 23.02         136 
 23.04         148 
 23.06         162 
 23.08         170 
 23.1          140 
 23.12         142 
 23.14         158 
 23.16         144 
 23.18         160 
 23.2          177 
 23.22         168 
 23.24         173 
 23.26         177 
 23.28         198 
 23.3          190 
 23.32         177 
 23.34         199 
 23.36         213 
 23.38         201 
 23.4          189 
 23.42         168 
 23.44         153 
 23.46         144 
 23.48         146 
 23.5          161 
 23.52         142 
 23.54         123 
 23.56         129 
 23.58         152 
 23.6          147 
 23.62         110 
 23.64         137 
 23.66         135 
 23.68         124 
 23.7          117 
 23.72         115 
 23.74         146 
 23.76         110 
 23.78         136 
 23.8          107 
 23.82         119 
 23.84         123 
 23.86         129 
 23.88         122 
 23.9          106 
 23.92         140 
 23.94         132 
 23.96         119 
 23.98         135 
 24            148 
 24.02         109 
 24.04         138 
 24.06         137 
 24.08         111 
 24.1          134 
 24.12         145 
 24.14         135 
 24.16         119 
 24.18         112 
 24.2          120 
 24.22         110 
 24.24         144 
 24.26         138 
 24.28         136 
 24.3          138 
 24.32         145 
 24.34         141 
 24.36         120 
 24.38         139 
 24.4          123 
 24.42         124 
 24.44         141 
 24.46         143 
 24.48         154 
 24.5          185 
 24.52         130 
 24.54         175 
 24.56         158 
 24.58         158 
 24.6          144 
 24.62         205 
 24.64         220 
 24.66         197 
 24.68         241 
 24.7          248 
 24.72         294 
 24.74         290 
 24.76         381 
 24.78         396 
 24.8          510 
 24.82         574 
 24.84         709 
 24.86         813 
 24.88         923 
 24.9          1062 
 24.92         1290 
 24.94         1493 
 24.96         1888 
 24.98         2246 
 25            2879 
 25.02         3561 
 25.04         4439 
 25.06         5515 
 25.08         7117 
 25.1          8845 
 25.12         11574 
 25.14         14418 
 25.16         17139 
 25.18         19713 
 25.2          20789 
 25.22         21240 
 25.24         19538 
 25.26         16898 
 25.28         13104 
 25.3          9701 
 25.32         6707 
 25.34         4180 
 25.36         2793 
 25.38         1714 
 25.4          1190 
 25.42         836 
 25.44         716 
 25.46         571 
 25.48         486 
 25.5          435 
 25.52         394 
 25.54         323 
 25.56         291 
 25.58         288 
 25.6          295 
 25.62         285 
 25.64         301 
 25.66         261 
 25.68         290 
 25.7          269 
 25.72         277 
 25.74         266 
 25.76         306 
 25.78         307 
 25.8          385 
 25.82         390 
 25.84         425 
 25.86         430 
 25.88         534 
 25.9          553 
 25.92         639 
 25.94         671 
 25.96         715 
 25.98         730 
 26            775 
 26.02         782 
 26.04         760 
 26.06         781 
 26.08         742 
 26.1          641 
 26.12         661 
 26.14         556 
 26.16         503 
 26.18         396 
 26.2          400 
 26.22         317 
 26.24         310 
 26.26         239 
 26.28         249 
 26.3          253 
 26.32         233 
 26.34         262 
 26.36         265 
 26.38         307 
 26.4          319 
 26.42         271 
 26.44         280 
 26.46         256 
 26.48         259 
 26.5          228 
 26.52         175 
 26.54         167 
 26.56         158 
 26.58         157 
 26.6          159 
 26.62         167 
 26.64         191 
 26.66         177 
 26.68         173 
 26.7          176 
 26.72         142 
 26.74         166 
 26.76         175 
 26.78         160 
 26.8          165 
 26.82         158 
 26.84         183 
 26.86         157 
 26.88         173 
 26.9          162 
 26.92         175 
 26.94         164 
 26.96         130 
 26.98         168 
 27            141 
 27.02         153 
 27.04         147 
 27.06         139 
 27.08         167 
 27.1          137 
 27.12         126 
 27.14         130 
 27.16         155 
 27.18         113 
 27.2          129 
 27.22         146 
 27.24         146 
 27.26         144 
 27.28         123 
 27.3          122 
 27.32         126 
 27.34         131 
 27.36         139 
 27.38         131 
 27.4          116 
 27.42         136 
 27.44         137 
 27.46         136 
 27.48         136 
 27.5          133 
 27.52         162 
 27.54         128 
 27.56         151 
 27.58         143 
 27.6          138 
 27.62         136 
 27.64         122 
 27.66         130 
 27.68         130 
 27.7          126 
 27.72         129 
 27.74         121 
 27.76         111 
 27.78         147 
 27.8          145 
 27.82         135 
 27.84         132 
 27.86         148 
 27.88         136 
 27.9          126 
 27.92         172 
 27.94         156 
 27.96         167 
 27.98         169 
 28            176 
 28.02         165 
 28.04         170 
 28.06         184 
 28.08         184 
 28.1          182 
 28.12         221 
 28.14         213 
 28.16         209 
 28.18         208 
 28.2          222 
 28.22         218 
 28.24         203 
 28.26         213 
 28.28         208 
 28.3          206 
 28.32         195 
 28.34         159 
 28.36         170 
 28.38         126 
 28.4          117 
 28.42         145 
 28.44         119 
 28.46         117 
 28.48         111 
 28.5          130 
 28.52         113 
 28.54         104 
 28.56         95 
 28.58         112 
 28.6          116 
 28.62         98 
 28.64         106 
 28.66         92 
 28.68         115 
 28.7          110 
 28.72         104 
 28.74         83 
 28.76         116 
 28.78         96 
 28.8          88 
 28.82         101 
 28.84         116 
 28.86         115 
 28.88         111 
 28.9          95 
 28.92         112 
 28.94         115 
 28.96         94 
 28.98         99 
 29            89 
 29.02         102 
 29.04         109 
 29.06         100 
 29.08         103 
 29.1          97 
 29.12         107 
 29.14         105 
 29.16         89 
 29.18         104 
 29.2          96 
 29.22         120 
 29.24         85 
 29.26         100 
 29.28         101 
 29.3          98 
 29.32         105 
 29.34         127 
 29.36         77 
 29.38         102 
 29.4          95 
 29.42         110 
 29.44         122 
 29.46         98 
 29.48         111 
 29.5          111 
 29.52         109 
 29.54         92 
 29.56         100 
 29.58         113 
 29.6          101 
 29.62         109 
 29.64         119 
 29.66         136 
 29.68         121 
 29.7          124 
 29.72         101 
 29.74         138 
 29.76         160 
 29.78         148 
 29.8          154 
 29.82         166 
 29.84         178 
 29.86         181 
 29.88         178 
 29.9          178 
 29.92         159 
 29.94         210 
 29.96         213 
 29.98         241 
 30            227 
 30.02         252 
 30.04         236 
 30.06         290 
 30.08         257 
 30.1          327 
 30.12         345 
 30.14         405 
 30.16         473 
 30.18         555 
 30.2          588 
 30.22         755 
 30.24         963 
 30.26         1134 
 30.28         1369 
 30.3          1811 
 30.32         2422 
 30.34         3131 
 30.36         4019 
 30.38         5204 
 30.4          6649 
 30.42         8362 
 30.44         9947 
 30.46         11121 
 30.48         11763 
 30.5          11825 
 30.52         10809 
 30.54         9582 
 30.56         7503 
 30.58         5790 
 30.6          4228 
 30.62         2909 
 30.64         1958 
 30.66         1330 
 30.68         923 
 30.7          701 
 30.72         537 
 30.74         506 
 30.76         424 
 30.78         369 
 30.8          352 
 30.82         308 
 30.84         274 
 30.86         278 
 30.88         268 
 30.9          257 
 30.92         248 
 30.94         268 
 30.96         219 
 30.98         232 
 31            218 
 31.02         201 
 31.04         209 
 31.06         237 
 31.08         223 
 31.1          240 
 31.12         238 
 31.14         222 
 31.16         251 
 31.18         234 
 31.2          236 
 31.22         234 
 31.24         219 
 31.26         229 
 31.28         203 
 31.3          168 
 31.32         181 
 31.34         184 
 31.36         124 
 31.38         117 
 31.4          122 
 31.42         127 
 31.44         117 
 31.46         111 
 31.48         91 
 31.5          108 
 31.52         116 
 31.54         109 
 31.56         104 
 31.58         87 
 31.6          82 
 31.62         96 
 31.64         108 
 31.66         104 
 31.68         110 
 31.7          95 
 31.72         93 
 31.74         107 
 31.76         108 
 31.78         100 
 31.8          86 
 31.82         107 
 31.84         85 
 31.86         86 
 31.88         87 
 31.9          94 
 31.92         98 
 31.94         90 
 31.96         86 
 31.98         81 
 32            104 
 32.02         89 
 32.04         91 
 32.06         116 
 32.08         99 
 32.1          112 
 32.12         97 
 32.14         116 
 32.16         94 
 32.18         104 
 32.2          90 
 32.22         88 
 32.24         91 
 32.26         107 
 32.28         93 
 32.3          91 
 32.32         94 
 32.34         79 
 32.36         98 
 32.38         95 
 32.4          87 
 32.42         99 
 32.44         104 
 32.46         98 
 32.48         99 
 32.5          100 
 32.52         92 
 32.54         104 
 32.56         91 
 32.58         90 
 32.6          102 
 32.62         111 
 32.64         97 
 32.66         96 
 32.68         113 
 32.7          96 
 32.72         98 
 32.74         103 
 32.76         85 
 32.78         98 
 32.8          94 
 32.82         113 
 32.84         95 
 32.86         88 
 32.88         92 
 32.9          105 
 32.92         125 
 32.94         126 
 32.96         115 
 32.98         132 
 33            157 
 33.02         149 
 33.04         142 
 33.06         182 
 33.08         184 
 33.1          195 
 33.12         218 
 33.14         267 
 33.16         269 
 33.18         310 
 33.2          355 
 33.22         447 
 33.24         552 
 33.26         767 
 33.28         912 
 33.3          1128 
 33.32         1472 
 33.34         1849 
 33.36         2377 
 33.38         2730 
 33.4          3138 
 33.42         3525 
 33.44         3420 
 33.46         3482 
 33.48         3190 
 33.5          2837 
 33.52         2444 
 33.54         1962 
 33.56         1631 
 33.58         1257 
 33.6          941 
 33.62         729 
 33.64         581 
 33.66         465 
 33.68         442 
 33.7          403 
 33.72         397 
 33.74         431 
 33.76         467 
 33.78         549 
 33.8          619 
 33.82         810 
 33.84         1046 
 33.86         1223 
 33.88         1547 
 33.9          2080 
 33.92         2712 
 33.94         3407 
 33.96         4335 
 33.98         5262 
 34            6028 
 34.02         6679 
 34.04         7055 
 34.06         6996 
 34.08         6880 
 34.1          6363 
 34.12         5468 
 34.14         4547 
 34.16         3600 
 34.18         2800 
 34.2          2057 
 34.22         1436 
 34.24         1036 
 34.26         769 
 34.28         555 
 34.3          433 
 34.32         366 
 34.34         276 
 34.36         228 
 34.38         228 
 34.4          212 
 34.42         198 
 34.44         188 
 34.46         178 
 34.48         156 
 34.5          147 
 34.52         148 
 34.54         149 
 34.56         154 
 34.58         157 
 34.6          122 
 34.62         124 
 34.64         139 
 34.66         123 
 34.68         116 
 34.7          122 
 34.72         130 
 34.74         125 
 34.76         130 
 34.78         106 
 34.8          128 
 34.82         107 
 34.84         117 
 34.86         84 
 34.88         102 
 34.9          105 
 34.92         103 
 34.94         105 
 34.96         116 
 34.98         97 
 35            100 
 35.02         90 
 35.04         115 
 35.06         103 
 35.08         112 
 35.1          113 
 35.12         109 
 35.14         99 
 35.16         83 
 35.18         104 
 35.2          97 
 35.22         79 
 35.24         87 
 35.26         106 
 35.28         100 
 35.3          102 
 35.32         130 
 35.34         108 
 35.36         100 
 35.38         118 
 35.4          137 
 35.42         112 
 35.44         135 
 35.46         106 
 35.48         145 
 35.5          137 
 35.52         147 
 35.54         129 
 35.56         136 
 35.58         166 
 35.6          157 
 35.62         158 
 35.64         175 
 35.66         181 
 35.68         196 
 35.7          201 
 35.72         205 
 35.74         209 
 35.76         228 
 35.78         269 
 35.8          255 
 35.82         290 
 35.84         271 
 35.86         292 
 35.88         295 
 35.9          244 
 35.92         291 
 35.94         251 
 35.96         264 
 35.98         224 
 36            239 
 36.02         216 
 36.04         188 
 36.06         201 
 36.08         185 
 36.1          162 
 36.12         186 
 36.14         175 
 36.16         154 
 36.18         133 
 36.2          125 
 36.22         122 
 36.24         123 
 36.26         103 
 36.28         106 
 36.3          94 
 36.32         98 
 36.34         113 
 36.36         97 
 36.38         85 
 36.4          86 
 36.42         97 
 36.44         83 
 36.46         89 
 36.48         89 
 36.5          73 
 36.52         82 
 36.54         79 
 36.56         81 
 36.58         88 
 36.6          97 
 36.62         89 
 36.64         78 
 36.66         94 
 36.68         88 
 36.7          97 
 36.72         69 
 36.74         100 
 36.76         97 
 36.78         86 
 36.8          88 
 36.82         84 
 36.84         111 
 36.86         84 
 36.88         109 
 36.9          98 
 36.92         109 
 36.94         100 
 36.96         113 
 36.98         123 
 37            90 
 37.02         130 
 37.04         133 
 37.06         134 
 37.08         141 
 37.1          175 
 37.12         181 
 37.14         196 
 37.16         219 
 37.18         204 
 37.2          227 
 37.22         259 
 37.24         295 
 37.26         304 
 37.28         311 
 37.3          336 
 37.32         374 
 37.34         428 
 37.36         401 
 37.38         518 
 37.4          566 
 37.42         717 
 37.44         879 
 37.46         1156 
 37.48         1407 
 37.5          1883 
 37.52         2436 
 37.54         3139 
 37.56         3892 
 37.58         4602 
 37.6          5242 
 37.62         5675 
 37.64         6066 
 37.66         6297 
 37.68         6388 
 37.7          6258 
 37.72         5894 
 37.74         5509 
 37.76         5177 
 37.78         4397 
 37.8          3851 
 37.82         3136 
 37.84         2599 
 37.86         2138 
 37.88         1615 
 37.9          1206 
 37.92         969 
 37.94         695 
 37.96         562 
 37.98         458 
 38            381 
 38.02         320 
 38.04         293 
 38.06         255 
 38.08         246 
 38.1          220 
 38.12         220 
 38.14         200 
 38.16         180 
 38.18         172 
 38.2          178 
 38.22         175 
 38.24         197 
 38.26         166 
 38.28         128 
 38.3          134 
 38.32         137 
 38.34         136 
 38.36         146 
 38.38         124 
 38.4          114 
 38.42         114 
 38.44         113 
 38.46         111 
 38.48         107 
 38.5          112 
 38.52         89 
 38.54         90 
 38.56         104 
 38.58         88 
 38.6          98 
 38.62         102 
 38.64         95 
 38.66         106 
 38.68         98 
 38.7          114 
 38.72         99 
 38.74         77 
 38.76         93 
 38.78         94 
 38.8          80 
 38.82         101 
 38.84         71 
 38.86         85 
 38.88         99 
 38.9          114 
 38.92         88 
 38.94         88 
 38.96         92 
 38.98         107 
 39            86 
 39.02         96 
 39.04         97 
 39.06         105 
 39.08         103 
 39.1          82 
 39.12         84 
 39.14         101 
 39.16         90 
 39.18         105 
 39.2          88 
 39.22         110 
 39.24         102 
 39.26         121 
 39.28         113 
 39.3          88 
 39.32         102 
 39.34         119 
 39.36         112 
 39.38         122 
 39.4          102 
 39.42         129 
 39.44         108 
 39.46         117 
 39.48         117 
 39.5          120 
 39.52         120 
 39.54         111 
 39.56         103 
 39.58         109 
 39.6          89 
 39.62         114 
 39.64         104 
 39.66         102 
 39.68         117 
 39.7          135 
 39.72         100 
 39.74         111 
 39.76         121 
 39.78         118 
 39.8          124 
 39.82         132 
 39.84         120 
 39.86         127 
 39.88         139 
 39.9          160 
 39.92         184 
 39.94         163 
 39.96         178 
 39.98         168 
 40            202 
 40.02         211 
 40.04         195 
 40.06         189 
 40.08         211 
 40.1          209 
 40.12         181 
 40.14         158 
 40.16         157 
 40.18         164 
 40.2          155 
 40.22         118 
 40.24         109 
 40.26         130 
 40.28         111 
 40.3          111 
 40.32         110 
 40.34         95 
 40.36         88 
 40.38         89 
 40.4          88 
 40.42         90 
 40.44         86 
 40.46         91 
 40.48         98 
 40.5          86 
 40.52         86 
 40.54         85 
 40.56         85 
 40.58         97 
 40.6          71 
 40.62         91 
 40.64         91 
 40.66         92 
 40.68         82 
 40.7          95 
 40.72         97 
 40.74         87 
 40.76         101 
 40.78         98 
 40.8          96 
 40.82         75 
 40.84         90 
 40.86         84 
 40.88         82 
 40.9          106 
 40.92         110 
 40.94         100 
 40.96         92 
 40.98         97 
 41            86 
 41.02         83 
 41.04         90 
 41.06         76 
 41.08         87 
 41.1          94 
 41.12         95 
 41.14         84 
 41.16         76 
 41.18         89 
 41.2          92 
 41.22         85 
 41.24         87 
 41.26         80 
 41.28         86 
 41.3          102 
 41.32         92 
 41.34         98 
 41.36         114 
 41.38         83 
 41.4          81 
 41.42         96 
 41.44         93 
 41.46         104 
 41.48         108 
 41.5          114 
 41.52         102 
 41.54         101 
 41.56         98 
 41.58         105 
 41.6          108 
 41.62         119 
 41.64         117 
 41.66         118 
 41.68         110 
 41.7          103 
 41.72         114 
 41.74         122 
 41.76         122 
 41.78         119 
 41.8          117 
 41.82         110 
 41.84         109 
 41.86         125 
 41.88         110 
 41.9          129 
 41.92         112 
 41.94         123 
 41.96         114 
 41.98         97 
 42            121 
 42.02         100 
 42.04         104 
 42.06         109 
 42.08         97 
 42.1          93 
 42.12         102 
 42.14         101 
 42.16         107 
 42.18         98 
 42.2          116 
 42.22         100 
 42.24         124 
 42.26         124 
 42.28         110 
 42.3          123 
 42.32         114 
 42.34         105 
 42.36         135 
 42.38         127 
 42.4          99 
 42.42         101 
 42.44         101 
 42.46         109 
 42.48         107 
 42.5          111 
 42.52         89 
 42.54         90 
 42.56         83 
 42.58         85 
 42.6          89 
 42.62         78 
 42.64         99 
 42.66         82 
 42.68         96 
 42.7          86 
 42.72         97 
 42.74         98 
 42.76         96 
 42.78         92 
 42.8          83 
 42.82         79 
 42.84         84 
 42.86         114 
 42.88         97 
 42.9          99 
 42.92         96 
 42.94         105 
 42.96         99 
 42.98         114 
 43            104 
 43.02         112 
 43.04         123 
 43.06         100 
 43.08         103 
 43.1          125 
 43.12         119 
 43.14         124 
 43.16         162 
 43.18         145 
 43.2          173 
 43.22         207 
 43.24         243 
 43.26         281 
 43.28         362 
 43.3          425 
 43.32         479 
 43.34         593 
 43.36         619 
 43.38         712 
 43.4          744 
 43.42         719 
 43.44         791 
 43.46         730 
 43.48         671 
 43.5          639 
 43.52         577 
 43.54         531 
 43.56         408 
 43.58         349 
 43.6          336 
 43.62         295 
 43.64         236 
 43.66         195 
 43.68         169 
 43.7          168 
 43.72         162 
 43.74         130 
 43.76         154 
 43.78         147 
 43.8          122 
 43.82         133 
 43.84         169 
 43.86         126 
 43.88         152 
 43.9          152 
 43.92         150 
 43.94         133 
 43.96         132 
 43.98         125 
 44            122 
 44.02         109 
 44.04         93 
 44.06         91 
 44.08         107 
 44.1          100 
 44.12         89 
 44.14         100 
 44.16         106 
 44.18         95 
 44.2          79 
 44.22         90 
 44.24         70 
 44.26         103 
 44.28         83 
 44.3          75 
 44.32         100 
 44.34         103 
 44.36         95 
 44.38         94 
 44.4          90 
 44.42         108 
 44.44         113 
 44.46         94 
 44.48         114 
 44.5          127 
 44.52         106 
 44.54         96 
 44.56         112 
 44.58         109 
 44.6          107 
 44.62         101 
 44.64         92 
 44.66         112 
 44.68         93 
 44.7          103 
 44.72         110 
 44.74         110 
 44.76         83 
 44.78         115 
 44.8          90 
 44.82         110 
 44.84         88 
 44.86         90 
 44.88         100 
 44.9          90 
 44.92         93 
 44.94         123 
 44.96         102 
 44.98         95 
 45            102 
 45.02         118 
 45.04         121 
 45.06         125 
 45.08         139 
 45.1          135 
 45.12         137 
 45.14         137 
 45.16         166 
 45.18         196 
 45.2          219 
 45.22         268 
 45.24         300 
 45.26         336 
 45.28         409 
 45.3          524 
 45.32         551 
 45.34         682 
 45.36         766 
 45.38         764 
 45.4          870 
 45.42         913 
 45.44         950 
 45.46         966 
 45.48         979 
 45.5          969 
 45.52         941 
 45.54         867 
 45.56         872 
 45.58         861 
 45.6          799 
 45.62         742 
 45.64         705 
 45.66         689 
 45.68         658 
 45.7          605 
 45.72         568 
 45.74         570 
 45.76         555 
 45.78         555 
 45.8          629 
 45.82         673 
 45.84         716 
 45.86         810 
 45.88         773 
 45.9          851 
 45.92         833 
 45.94         899 
 45.96         813 
 45.98         738 
 46            741 
 46.02         661 
 46.04         632 
 46.06         542 
 46.08         488 
 46.1          469 
 46.12         389 
 46.14         358 
 46.16         331 
 46.18         316 
 46.2          302 
 46.22         276 
 46.24         259 
 46.26         265 
 46.28         237 
 46.3          230 
 46.32         287 
 46.34         283 
 46.36         310 
 46.38         333 
 46.4          412 
 46.42         394 
 46.44         401 
 46.46         419 
 46.48         427 
 46.5          474 
 46.52         494 
 46.54         577 
 46.56         552 
 46.58         609 
 46.6          611 
 46.62         508 
 46.64         526 
 46.66         578 
 46.68         517 
 46.7          458 
 46.72         362 
 46.74         354 
 46.76         324 
 46.78         306 
 46.8          245 
 46.82         195 
 46.84         174 
 46.86         146 
 46.88         161 
 46.9          156 
 46.92         133 
 46.94         106 
 46.96         98 
 46.98         88 
 47            95 
 47.02         110 
 47.04         89 
 47.06         80 
 47.08         98 
 47.1          88 
 47.12         82 
 47.14         83 
 47.16         83 
 47.18         86 
 47.2          99 
 47.22         85 
 47.24         101 
 47.26         73 
 47.28         73 
 47.3          86 
 47.32         92 
 47.34         87 
 47.36         78 
 47.38         85 
 47.4          76 
 47.42         82 
 47.44         82 
 47.46         66 
 47.48         84 
 47.5          89 
 47.52         78 
 47.54         81 
 47.56         66 
 47.58         78 
 47.6          74 
 47.62         93 
 47.64         98 
 47.66         92 
 47.68         85 
 47.7          99 
 47.72         88 
 47.74         87 
 47.76         84 
 47.78         91 
 47.8          104 
 47.82         87 
 47.84         84 
 47.86         95 
 47.88         103 
 47.9          102 
 47.92         93 
 47.94         114 
 47.96         100 
 47.98         103 
 48            105 
 48.02         121 
 48.04         96 
 48.06         125 
 48.08         144 
 48.1          110 
 48.12         129 
 48.14         129 
 48.16         138 
 48.18         141 
 48.2          155 
 48.22         168 
 48.24         142 
 48.26         149 
 48.28         134 
 48.3          168 
 48.32         128 
 48.34         139 
 48.36         129 
 48.38         151 
 48.4          152 
 48.42         162 
 48.44         164 
 48.46         171 
 48.48         161 
 48.5          164 
 48.52         182 
 48.54         185 
 48.56         203 
 48.58         205 
 48.6          229 
 48.62         265 
 48.64         271 
 48.66         305 
 48.68         355 
 48.7          426 
 48.72         535 
 48.74         661 
 48.76         776 
 48.78         1073 
 48.8          1303 
 48.82         1734 
 48.84         2020 
 48.86         2482 
 48.88         2808 
 48.9          3068 
 48.92         3362 
 48.94         3488 
 48.96         3496 
 48.98         3533 
 49            3366 
 49.02         3135 
 49.04         2931 
 49.06         2658 
 49.08         2540 
 49.1          2459 
 49.12         2245 
 49.14         2233 
 49.16         2183 
 49.18         2291 
 49.2          2283 
 49.22         2233 
 49.24         2199 
 49.26         2077 
 49.28         1896 
 49.3          1852 
 49.32         1635 
 49.34         1463 
 49.36         1233 
 49.38         1080 
 49.4          891 
 49.42         790 
 49.44         543 
 49.46         459 
 49.48         349 
 49.5          289 
 49.52         242 
 49.54         206 
 49.56         181 
 49.58         184 
 49.6          142 
 49.62         133 
 49.64         128 
 49.66         115 
 49.68         113 
 49.7          111 
 49.72         128 
 49.74         121 
 49.76         101 
 49.78         83 
 49.8          106 
 49.82         98 
 49.84         124 
 49.86         99 
 49.88         104 
 49.9          103 
 49.92         95 
 49.94         105 
 49.96         94 
 49.98         96 
 50            113 
 50.02         84 
 50.04         88 
 50.06         102 
 50.08         76 
 50.1          88 
 50.12         84 
 50.14         79 
 50.16         86 
 50.18         90 
 50.2          93 
 50.22         104 
 50.24         89 
 50.26         93 
 50.28         87 
 50.3          111 
 50.32         72 
 50.34         97 
 50.36         98 
 50.38         85 
 50.4          88 
 50.42         84 
 50.44         107 
 50.46         74 
 50.48         88 
 50.5          104 
 50.52         85 
 50.54         83 
 50.56         84 
 50.58         78 
 50.6          78 
 50.62         76 
 50.64         85 
 50.66         85 
 50.68         111 
 50.7          86 
 50.72         90 
 50.74         94 
 50.76         107 
 50.78         112 
 50.8          108 
 50.82         105 
 50.84         115 
 50.86         97 
 50.88         127 
 50.9          151 
 50.92         172 
 50.94         174 
 50.96         244 
 50.98         283 
 51            297 
 51.02         361 
 51.04         476 
 51.06         537 
 51.08         559 
 51.1          601 
 51.12         609 
 51.14         677 
 51.16         722 
 51.18         794 
 51.2          702 
 51.22         771 
 51.24         764 
 51.26         812 
 51.28         794 
 51.3          738 
 51.32         749 
 51.34         753 
 51.36         723 
 51.38         704 
 51.4          684 
 51.42         716 
 51.44         665 
 51.46         693 
 51.48         687 
 51.5          747 
 51.52         782 
 51.54         964 
 51.56         1081 
 51.58         1349 
 51.6          1667 
 51.62         1918 
 51.64         2206 
 51.66         2505 
 51.68         2687 
 51.7          2720 
 51.72         2721 
 51.74         2758 
 51.76         2628 
 51.78         2458 
 51.8          2428 
 51.82         2278 
 51.84         2125 
 51.86         2055 
 51.88         1887 
 51.9          1628 
 51.92         1391 
 51.94         1225 
 51.96         1108 
 51.98         1034 
 52            825 
 52.02         691 
 52.04         662 
 52.06         527 
 52.08         428 
 52.1          352 
 52.12         343 
 52.14         293 
 52.16         239 
 52.18         214 
 52.2          179 
 52.22         162 
 52.24         160 
 52.26         151 
 52.28         148 
 52.3          138 
 52.32         106 
 52.34         131 
 52.36         122 
 52.38         109 
 52.4          102 
 52.42         97 
 52.44         110 
 52.46         122 
 52.48         104 
 52.5          107 
 52.52         98 
 52.54         114 
 52.56         88 
 52.58         100 
 52.6          109 
 52.62         107 
 52.64         99 
 52.66         97 
 52.68         87 
 52.7          109 
 52.72         82 
 52.74         97 
 52.76         99 
 52.78         88 
 52.8          77 
 52.82         96 
 52.84         89 
 52.86         87 
 52.88         82 
 52.9          89 
 52.92         83 
 52.94         117 
 52.96         88 
 52.98         85 
 53            85 
 53.02         98 
 53.04         97 
 53.06         96 
 53.08         95 
 53.1          99 
 53.12         100 
 53.14         118 
 53.16         91 
 53.18         126 
 53.2          117 
 53.22         108 
 53.24         126 
 53.26         121 
 53.28         152 
 53.3          125 
 53.32         149 
 53.34         161 
 53.36         196 
 53.38         217 
 53.4          211 
 53.42         246 
 53.44         247 
 53.46         243 
 53.48         282 
 53.5          272 
 53.52         265 
 53.54         288 
 53.56         329 
 53.58         303 
 53.6          306 
 53.62         298 
 53.64         290 
 53.66         262 
 53.68         273 
 53.7          247 
 53.72         298 
 53.74         261 
 53.76         251 
 53.78         236 
 53.8          215 
 53.82         204 
 53.84         196 
 53.86         144 
 53.88         185 
 53.9          151 
 53.92         151 
 53.94         123 
 53.96         120 
 53.98         106 
 54            101 
 54.02         88 
 54.04         88 
 54.06         81 
 54.08         82 
 54.1          94 
 54.12         92 
 54.14         106 
 54.16         90 
 54.18         93 
 54.2          110 
 54.22         85 
 54.24         98 
 54.26         109 
 54.28         104 
 54.3          103 
 54.32         112 
 54.34         88 
 54.36         122 
 54.38         104 
 54.4          106 
 54.42         108 
 54.44         101 
 54.46         95 
 54.48         107 
 54.5          98 
 54.52         77 
 54.54         82 
 54.56         93 
 54.58         82 
 54.6          84 
 54.62         101 
 54.64         77 
 54.66         68 
 54.68         73 
 54.7          88 
 54.72         78 
 54.74         61 
 54.76         89 
 54.78         84 
 54.8          82 
 54.82         75 
 54.84         89 
 54.86         89 
 54.88         66 
 54.9          73 
 54.92         92 
 54.94         65 
 54.96         79 
 54.98         94 
 55            88 
 55.02         81 
 55.04         71 
 55.06         69 
 55.08         100 
 55.1          87 
 55.12         77 
 55.14         112 
 55.16         89 
 55.18         87 
 55.2          80 
 55.22         97 
 55.24         87 
 55.26         90 
 55.28         81 
 55.3          112 
 55.32         91 
 55.34         86 
 55.36         102 
 55.38         107 
 55.4          113 
 55.42         126 
 55.44         107 
 55.46         95 
 55.48         113 
 55.5          97 
 55.52         104 
 55.54         123 
 55.56         128 
 55.58         110 
 55.6          151 
 55.62         117 
 55.64         136 
 55.66         145 
 55.68         148 
 55.7          156 
 55.72         195 
 55.74         236 
 55.76         250 
 55.78         330 
 55.8          409 
 55.82         463 
 55.84         554 
 55.86         674 
 55.88         754 
 55.9          809 
 55.92         975 
 55.94         970 
 55.96         968 
 55.98         964 
 56            1045 
 56.02         975 
 56.04         1075 
 56.06         1075 
 56.08         1170 
 56.1          1238 
 56.12         1463 
 56.14         1497 
 56.16         1625 
 56.18         1686 
 56.2          1761 
 56.22         1832 
 56.24         1885 
 56.26         1938 
 56.28         1954 
 56.3          1877 
 56.32         1916 
 56.34         1828 
 56.36         1707 
 56.38         1624 
 56.4          1340 
 56.42         1240 
 56.44         1146 
 56.46         896 
 56.48         869 
 56.5          719 
 56.52         620 
 56.54         474 
 56.56         407 
 56.58         348 
 56.6          297 
 56.62         241 
 56.64         211 
 56.66         177 
 56.68         200 
 56.7          174 
 56.72         165 
 56.74         160 
 56.76         171 
 56.78         164 
 56.8          124 
 56.82         145 
 56.84         116 
 56.86         132 
 56.88         126 
 56.9          136 
 56.92         116 
 56.94         106 
 56.96         142 
 56.98         104 
 57            101 
 57.02         107 
 57.04         109 
 57.06         82 
 57.08         96 
 57.1          90 
 57.12         90 
 57.14         73 
 57.16         105 
 57.18         98 
 57.2          105 
 57.22         88 
 57.24         96 
 57.26         86 
 57.28         78 
 57.3          82 
 57.32         82 
 57.34         71 
 57.36         74 
 57.38         75 
 57.4          90 
 57.42         85 
 57.44         69 
 57.46         91 
 57.48         74 
 57.5          71 
 57.52         91 
 57.54         93 
 57.56         90 
 57.58         107 
 57.6          76 
 57.62         99 
 57.64         83 
 57.66         76 
 57.68         100 
 57.7          102 
 57.72         80 
 57.74         79 
 57.76         84 
 57.78         80 
 57.8          87 
 57.82         85 
 57.84         95 
 57.86         108 
 57.88         82 
 57.9          97 
 57.92         101 
 57.94         101 
 57.96         111 
 57.98         110 
 58            117 
 58.02         129 
 58.04         125 
 58.06         125 
 58.08         135 
 58.1          174 
 58.12         157 
 58.14         178 
 58.16         225 
 58.18         238 
 58.2          259 
 58.22         294 
 58.24         331 
 58.26         340 
 58.28         368 
 58.3          367 
 58.32         435 
 58.34         438 
 58.36         439 
 58.38         467 
 58.4          469 
 58.42         483 
 58.44         471 
 58.46         524 
 58.48         542 
 58.5          486 
 58.52         523 
 58.54         461 
 58.56         530 
 58.58         559 
 58.6          506 
 58.62         600 
 58.64         726 
 58.66         758 
 58.68         868 
 58.7          999 
 58.72         1225 
 58.74         1381 
 58.76         1578 
 58.78         1683 
 58.8          1837 
 58.82         1980 
 58.84         1916 
 58.86         2044 
 58.88         2008 
 58.9          2034 
 58.92         2208 
 58.94         2303 
 58.96         2516 
 58.98         2823 
 59            3059 
 59.02         3175 
 59.04         3315 
 59.06         3543 
 59.08         3680 
 59.1          3744 
 59.12         3695 
 59.14         3651 
 59.16         3682 
 59.18         3479 
 59.2          3264 
 59.22         3204 
 59.24         2881 
 59.26         2725 
 59.28         2411 
 59.3          2127 
 59.32         1902 
 59.34         1693 
 59.36         1425 
 59.38         1110 
 59.4          999 
 59.42         833 
 59.44         725 
 59.46         584 
 59.48         504 
 59.5          408 
 59.52         327 
 59.54         282 
 59.56         253 
 59.58         234 
 59.6          194 
 59.62         186 
 59.64         166 
 59.66         160 
 59.68         163 
 59.7          162 
 59.72         169 
 59.74         141 
 59.76         160 
 59.78         135 
 59.8          163 
 59.82         143 
 59.84         152 
 59.86         129 
 59.88         129 
 59.9          125 
 59.92         134 
 59.94         112 
 59.96         148 
 59.98         141 
 60            122 
 60.02         111 
 60.04         128 
 60.06         116 
 60.08         115 
 60.1          120 
 60.12         105 
 60.14         113 
 60.16         109 
 60.18         113 
 60.2          110 
 60.22         123 
 60.24         114 
 60.26         138 
 60.28         152 
 60.3          155 
 60.32         178 
 60.34         210 
 60.36         210 
 60.38         197 
 60.4          218 
 60.42         258 
 60.44         293 
 60.46         303 
 60.48         305 
 60.5          277 
 60.52         293 
 60.54         308 
 60.56         308 
 60.58         346 
 60.6          412 
 60.62         406 
 60.64         488 
 60.66         530 
 60.68         597 
 60.7          651 
 60.72         724 
 60.74         787 
 60.76         858 
 60.78         820 
 60.8          829 
 60.82         870 
 60.84         853 
 60.86         856 
 60.88         823 
 60.9          752 
 60.92         678 
 60.94         622 
 60.96         566 
 60.98         534 
 61            498 
 61.02         451 
 61.04         337 
 61.06         353 
 61.08         275 
 61.1          234 
 61.12         215 
 61.14         200 
 61.16         180 
 61.18         138 
 61.2          129 
 61.22         143 
 61.24         110 
 61.26         119 
 61.28         112 
 61.3          110 
 61.32         122 
 61.34         98 
 61.36         119 
 61.38         96 
 61.4          111 
 61.42         124 
 61.44         117 
 61.46         101 
 61.48         113 
 61.5          104 
 61.52         101 
 61.54         118 
 61.56         113 
 61.58         133 
 61.6          95 
 61.62         106 
 61.64         115 
 61.66         114 
 61.68         110 
 61.7          104 
 61.72         95 
 61.74         92 
 61.76         95 
 61.78         95 
 61.8          94 
 61.82         85 
 61.84         91 
 61.86         76 
 61.88         90 
 61.9          62 
 61.92         72 
 61.94         96 
 61.96         84 
 61.98         77 
 62            92 
 62.02         95 
 62.04         89 
 62.06         90 
 62.08         97 
 62.1          84 
 62.12         81 
 62.14         86 
 62.16         66 
 62.18         72 
 62.2          70 
 62.22         76 
 62.24         72 
 62.26         76 
 62.28         92 
 62.3          71 
 62.32         74 
 62.34         76 
 62.36         87 
 62.38         79 
 62.4          69 
 62.42         90 
 62.44         72 
 62.46         70 
 62.48         74 
 62.5          71 
 62.52         84 
 62.54         75 
 62.56         70 
 62.58         89 
 62.6          89 
 62.62         82 
 62.64         65 
 62.66         88 
 62.68         73 
 62.7          81 
 62.72         77 
 62.74         74 
 62.76         79 
 62.78         87 
 62.8          81 
 62.82         80 
 62.84         76 
 62.86         99 
 62.88         96 
 62.9          84 
 62.92         89 
 62.94         107 
 62.96         88 
 62.98         93 
 63            93 
 63.02         120 
 63.04         121 
 63.06         126 
 63.08         131 
 63.1          144 
 63.12         158 
 63.14         159 
 63.16         183 
 63.18         202 
 63.2          264 
 63.22         336 
 63.24         431 
 63.26         506 
 63.28         568 
 63.3          654 
 63.32         729 
 63.34         821 
 63.36         860 
 63.38         848 
 63.4          830 
 63.42         716 
 63.44         707 
 63.46         678 
 63.48         641 
 63.5          603 
 63.52         563 
 63.54         498 
 63.56         456 
 63.58         426 
 63.6          353 
 63.62         308 
 63.64         280 
 63.66         197 
 63.68         186 
 63.7          172 
 63.72         126 
 63.74         143 
 63.76         109 
 63.78         120 
 63.8          102 
 63.82         101 
 63.84         97 
 63.86         94 
 63.88         101 
 63.9          99 
 63.92         97 
 63.94         110 
 63.96         101 
 63.98         109 
 64            102 
 64.02         107 
 64.04         84 
 64.06         110 
 64.08         96 
 64.1          116 
 64.12         109 
 64.14         118 
 64.16         94 
 64.18         104 
 64.2          94 
 64.22         97 
 64.24         102 
 64.26         100 
 64.28         86 
 64.3          102 
 64.32         93 
 64.34         110 
 64.36         118 
 64.38         111 
 64.4          117 
 64.42         103 
 64.44         122 
 64.46         129 
 64.48         134 
 64.5          126 
 64.52         123 
 64.54         149 
 64.56         160 
 64.58         165 
 64.6          153 
 64.62         178 
 64.64         183 
 64.66         193 
 64.68         208 
 64.7          226 
 64.72         250 
 64.74         312 
 64.76         289 
 64.78         308 
 64.8          313 
 64.82         348 
 64.84         340 
 64.86         374 
 64.88         403 
 64.9          355 
 64.92         451 
 64.94         419 
 64.96         425 
 64.98         508 
 65            489 
 65.02         481 
 65.04         537 
 65.06         549 
 65.08         580 
 65.1          629 
 65.12         635 
 65.14         642 
 65.16         611 
 65.18         748 
 65.2          736 
 65.22         784 
 65.24         870 
 65.26         927 
 65.28         1016 
 65.3          1125 
 65.32         1258 
 65.34         1193 
 65.36         1412 
 65.38         1450 
 65.4          1410 
 65.42         1419 
 65.44         1353 
 65.46         1328 
 65.48         1282 
 65.5          1356 
 65.52         1234 
 65.54         1259 
 65.56         1314 
 65.58         1404 
 65.6          1322 
 65.62         1393 
 65.64         1396 
 65.66         1520 
 65.68         1501 
 65.7          1378 
 65.72         1418 
 65.74         1302 
 65.76         1260 
 65.78         1178 
 65.8          1010 
 65.82         1067 
 65.84         933 
 65.86         876 
 65.88         878 
 65.9          765 
 65.92         711 
 65.94         588 
 65.96         530 
 65.98         455 
 66            385 
 66.02         332 
 66.04         288 
 66.06         292 
 66.08         234 
 66.1          209 
 66.12         163 
 66.14         194 
 66.16         172 
 66.18         164 
 66.2          151 
 66.22         122 
 66.24         131 
 66.26         155 
 66.28         117 
 66.3          124 
 66.32         127 
 66.34         107 
 66.36         111 
 66.38         125 
 66.4          126 
 66.42         107 
 66.44         105 
 66.46         108 
 66.48         109 
 66.5          94 
 66.52         116 
 66.54         87 
 66.56         100 
 66.58         119 
 66.6          87 
 66.62         94 
 66.64         85 
 66.66         96 
 66.68         84 
 66.7          90 
 66.72         98 
 66.74         94 
 66.76         92 
 66.78         110 
 66.8          94 
 66.82         96 
 66.84         79 
 66.86         101 
 66.88         99 
 66.9          110 
 66.92         94 
 66.94         74 
 66.96         108 
 66.98         97 
 67            76 
 67.02         85 
 67.04         101 
 67.06         92 
 67.08         100 
 67.1          91 
 67.12         87 
 67.14         96 
 67.16         117 
 67.18         108 
 67.2          97 
 67.22         123 
 67.24         104 
 67.26         94 
 67.28         87 
 67.3          98 
 67.32         110 
 67.34         129 
 67.36         117 
 67.38         109 
 67.4          113 
 67.42         142 
 67.44         106 
 67.46         124 
 67.48         146 
 67.5          158 
 67.52         138 
 67.54         163 
 67.56         204 
 67.58         210 
 67.6          248 
 67.62         264 
 67.64         318 
 67.66         340 
 67.68         408 
 67.7          433 
 67.72         496 
 67.74         498 
 67.76         539 
 67.78         583 
 67.8          627 
 67.82         682 
 67.84         776 
 67.86         887 
 67.88         937 
 67.9          1029 
 67.92         1094 
 67.94         1016 
 67.96         1122 
 67.98         1113 
 68            1183 
 68.02         1109 
 68.04         1078 
 68.06         1043 
 68.08         1130 
 68.1          969 
 68.12         977 
 68.14         961 
 68.16         876 
 68.18         814 
 68.2          683 
 68.22         686 
 68.24         586 
 68.26         555 
 68.28         487 
 68.3          418 
 68.32         414 
 68.34         319 
 68.36         319 
 68.38         271 
 68.4          254 
 68.42         208 
 68.44         194 
 68.46         172 
 68.48         179 
 68.5          158 
 68.52         133 
 68.54         148 
 68.56         114 
 68.58         146 
 68.6          146 
 68.62         128 
 68.64         115 
 68.66         133 
 68.68         139 
 68.7          156 
 68.72         180 
 68.74         187 
 68.76         163 
 68.78         186 
 68.8          199 
 68.82         178 
 68.84         223 
 68.86         263 
 68.88         274 
 68.9          315 
 68.92         306 
 68.94         333 
 68.96         393 
 68.98         429 
 69            495 
 69.02         529 
 69.04         555 
 69.06         616 
 69.08         644 
 69.1          671 
 69.12         655 
 69.14         675 
 69.16         642 
 69.18         705 
 69.2          701 
 69.22         686 
 69.24         640 
 69.26         677 
 69.28         674 
 69.3          737 
 69.32         660 
 69.34         617 
 69.36         634 
 69.38         620 
 69.4          600 
 69.42         582 
 69.44         583 
 69.46         578 
 69.48         552 
 69.5          555 
 69.52         560 
 69.54         581 
 69.56         564 
 69.58         642 
 69.6          677 
 69.62         738 
 69.64         754 
 69.66         820 
 69.68         797 
 69.7          842 
 69.72         767 
 69.74         741 
 69.76         704 
 69.78         709 
 69.8          665 
 69.82         649 
 69.84         550 
 69.86         507 
 69.88         500 
 69.9          477 
 69.92         419 
 69.94         392 
 69.96         365 
 69.98         315 
 70            273 
 70.02         237 
 70.04         212 
 70.06         178 
 70.08         166 
 70.1          159 
 70.12         140 
 70.14         129 
 70.16         120 
 70.18         101 
 70.2          107 
 70.22         115 
 70.24         103 
 70.26         96 
 70.28         107 
 70.3          86 
 70.32         111 
 70.34         106 
 70.36         95 
 70.38         101 
 70.4          93 
 70.42         92 
 70.44         96 
 70.46         90 
 70.48         106 
 70.5          94 
 70.52         84 
 70.54         90 
 70.56         97 
 70.58         75 
 70.6          87 
 70.62         83 
 70.64         77 
 70.66         82 
 70.68         85 
 70.7          95 
 70.72         83 
 70.74         83 
 70.76         98 
 70.78         77 
 70.8          71 
 70.82         81 
 70.84         70 
 70.86         68 
 70.88         93 
 70.9          83 
 70.92         84 
 70.94         83 
 70.96         83 
 70.98         81 
 71            76 
 71.02         92 
 71.04         93 
 71.06         82 
 71.08         72 
 71.1          52 
 71.12         79 
 71.14         91 
 71.16         85 
 71.18         101 
 71.2          92 
 71.22         85 
 71.24         87 
 71.26         96 
 71.28         115 
 71.3          104 
 71.32         125 
 71.34         129 
 71.36         148 
 71.38         190 
 71.4          203 
 71.42         234 
 71.44         227 
 71.46         283 
 71.48         317 
 71.5          319 
 71.52         358 
 71.54         386 
 71.56         446 
 71.58         401 
 71.6          388 
 71.62         419 
 71.64         479 
 71.66         428 
 71.68         427 
 71.7          445 
 71.72         399 
 71.74         409 
 71.76         378 
 71.78         323 
 71.8          358 
 71.82         325 
 71.84         316 
 71.86         269 
 71.88         276 
 71.9          297 
 71.92         231 
 71.94         265 
 71.96         277 
 71.98         248 
 72            303 
 72.02         292 
 72.04         325 
 72.06         349 
 72.08         432 
 72.1          466 
 72.12         522 
 72.14         525 
 72.16         569 
 72.18         556 
 72.2          591 
 72.22         609 
 72.24         619 
 72.26         553 
 72.28         562 
 72.3          566 
 72.32         576 
 72.34         524 
 72.36         516 
 72.38         492 
 72.4          463 
 72.42         470 
 72.44         433 
 72.46         411 
 72.48         420 
 72.5          405 
 72.52         355 
 72.54         351 
 72.56         360 
 72.58         348 
 72.6          379 
 72.62         402 
 72.64         372 
 72.66         366 
 72.68         378 
 72.7          399 
 72.72         359 
 72.74         388 
 72.76         339 
 72.78         371 
 72.8          414 
 72.82         364 
 72.84         376 
 72.86         449 
 72.88         359 
 72.9          393 
 72.92         393 
 72.94         391 
 72.96         383 
 72.98         359 
 73            358 
 73.02         346 
 73.04         335 
 73.06         339 
 73.08         328 
 73.1          343 
 73.12         310 
 73.14         362 
 73.16         364 
 73.18         412 
 73.2          409 
 73.22         432 
 73.24         455 
 73.26         515 
 73.28         504 
 73.3          576 
 73.32         657 
 73.34         606 
 73.36         609 
 73.38         679 
 73.4          676 
 73.42         733 
 73.44         749 
 73.46         774 
 73.48         758 
 73.5          818 
 73.52         742 
 73.54         768 
 73.56         767 
 73.58         744 
 73.6          825 
 73.62         737 
 73.64         755 
 73.66         753 
 73.68         798 
 73.7          802 
 73.72         791 
 73.74         752 
 73.76         788 
 73.78         841 
 73.8          808 
 73.82         833 
 73.84         746 
 73.86         785 
 73.88         805 
 73.9          798 
 73.92         731 
 73.93999      726 
 73.96         682 
 73.98         607 
 74            570 
 74.02         581 
 74.04         559 
 74.06         498 
 74.08         476 
 74.1          451 
 74.12         424 
 74.14         394 
 74.16         379 
 74.18         329 
 74.2          311 
 74.22         269 
 74.24         270 
 74.26         243 
 74.28         217 
 74.3          192 
 74.32         188 
 74.34         148 
 74.36         164 
 74.38         146 
 74.4          144 
 74.42         114 
 74.43999      121 
 74.46         114 
 74.48         97 
 74.5          108 
 74.52         108 
 74.54         101 
 74.56         77 
 74.58         105 
 74.6          89 
 74.62         93 
 74.64         79 
 74.66         99 
 74.68         78 
 74.7          93 
 74.72         78 
 74.74         73 
 74.76         68 
 74.78         87 
 74.8          69 
 74.82         73 
 74.84         66 
 74.86         77 
 74.88         69 
 74.9          80 
 74.92         82 
 74.93999      65 
 74.96         76 
 74.98         67 
 75            60 
