LAZP-P1  Original Data
 3151 
 12            125 
 12.02         127 
 12.04         124 
 12.06         101 
 12.08         118 
 12.1          110 
 12.12         94 
 12.14         115 
 12.16         117 
 12.18         110 
 12.2          124 
 12.22         125 
 12.24         116 
 12.26         126 
 12.28         148 
 12.3          103 
 12.32         133 
 12.34         130 
 12.36         126 
 12.38         121 
 12.4          110 
 12.42         112 
 12.44         136 
 12.46         105 
 12.48         119 
 12.5          99 
 12.52         117 
 12.54         116 
 12.56         126 
 12.58         99 
 12.6          95 
 12.62         108 
 12.64         114 
 12.66         124 
 12.68         112 
 12.7          108 
 12.72         120 
 12.74         121 
 12.76         114 
 12.78         97 
 12.8          115 
 12.82         104 
 12.84         117 
 12.86         133 
 12.88         115 
 12.9          129 
 12.92         113 
 12.94         122 
 12.96         91 
 12.98         111 
 13            101 
 13.02         110 
 13.04         122 
 13.06         137 
 13.08         104 
 13.1          104 
 13.12         127 
 13.14         109 
 13.16         98 
 13.18         108 
 13.2          112 
 13.22         112 
 13.24         82 
 13.26         111 
 13.28         110 
 13.3          96 
 13.32         106 
 13.34         95 
 13.36         88 
 13.38         110 
 13.4          105 
 13.42         113 
 13.44         105 
 13.46         106 
 13.48         97 
 13.5          116 
 13.52         101 
 13.54         106 
 13.56         107 
 13.58         100 
 13.6          97 
 13.62         110 
 13.64         94 
 13.66         123 
 13.68         118 
 13.7          108 
 13.72         106 
 13.74         104 
 13.76         92 
 13.78         77 
 13.8          94 
 13.82         93 
 13.84         104 
 13.86         94 
 13.88         119 
 13.9          109 
 13.92         117 
 13.94         97 
 13.96         125 
 13.98         106 
 14            118 
 14.02         100 
 14.04         85 
 14.06         99 
 14.08         114 
 14.1          113 
 14.12         126 
 14.14         116 
 14.16         119 
 14.18         135 
 14.2          134 
 14.22         140 
 14.24         137 
 14.26         144 
 14.28         150 
 14.3          168 
 14.32         180 
 14.34         170 
 14.36         225 
 14.38         255 
 14.4          261 
 14.42         265 
 14.44         232 
 14.46         196 
 14.48         199 
 14.5          158 
 14.52         117 
 14.54         109 
 14.56         108 
 14.58         97 
 14.6          97 
 14.62         100 
 14.64         97 
 14.66         84 
 14.68         92 
 14.7          89 
 14.72         79 
 14.74         70 
 14.76         72 
 14.78         89 
 14.8          101 
 14.82         84 
 14.84         81 
 14.86         89 
 14.88         95 
 14.9          103 
 14.92         71 
 14.94         82 
 14.96         89 
 14.98         82 
 15            97 
 15.02         86 
 15.04         97 
 15.06         98 
 15.08         94 
 15.1          100 
 15.12         84 
 15.14         86 
 15.16         95 
 15.18         76 
 15.2          78 
 15.22         86 
 15.24         93 
 15.26         83 
 15.28         73 
 15.3          81 
 15.32         81 
 15.34         82 
 15.36         92 
 15.38         87 
 15.4          77 
 15.42         78 
 15.44         87 
 15.46         90 
 15.48         95 
 15.5          93 
 15.52         110 
 15.54         93 
 15.56         99 
 15.58         95 
 15.6          124 
 15.62         123 
 15.64         145 
 15.66         153 
 15.68         134 
 15.7          162 
 15.72         188 
 15.74         205 
 15.76         224 
 15.78         273 
 15.8          285 
 15.82         328 
 15.84         379 
 15.86         434 
 15.88         483 
 15.9          630 
 15.92         719 
 15.94         732 
 15.96         758 
 15.98         689 
 16            580 
 16.02         467 
 16.04         307 
 16.06         229 
 16.08         146 
 16.1          120 
 16.12         94 
 16.14         107 
 16.16         94 
 16.18         88 
 16.2          71 
 16.22         80 
 16.24         95 
 16.26         83 
 16.28         75 
 16.3          77 
 16.32         88 
 16.34         84 
 16.36         87 
 16.38         77 
 16.4          75 
 16.42         82 
 16.44         74 
 16.46         69 
 16.48         70 
 16.5          74 
 16.52         83 
 16.54         71 
 16.56         72 
 16.58         89 
 16.6          75 
 16.62         73 
 16.64         84 
 16.66         90 
 16.68         85 
 16.7          78 
 16.72         90 
 16.74         84 
 16.76         90 
 16.78         91 
 16.8          81 
 16.82         85 
 16.84         103 
 16.86         108 
 16.88         105 
 16.9          106 
 16.92         116 
 16.94         110 
 16.96         116 
 16.98         97 
 17            97 
 17.02         94 
 17.04         66 
 17.06         78 
 17.08         73 
 17.1          73 
 17.12         81 
 17.14         84 
 17.16         85 
 17.18         84 
 17.2          70 
 17.22         85 
 17.24         81 
 17.26         81 
 17.28         82 
 17.3          95 
 17.32         77 
 17.34         85 
 17.36         96 
 17.38         94 
 17.4          101 
 17.42         93 
 17.44         110 
 17.46         103 
 17.48         104 
 17.5          95 
 17.52         90 
 17.54         87 
 17.56         97 
 17.58         72 
 17.6          72 
 17.62         70 
 17.64         73 
 17.66         88 
 17.68         81 
 17.7          93 
 17.72         76 
 17.74         78 
 17.76         81 
 17.78         75 
 17.8          67 
 17.82         62 
 17.84         68 
 17.86         67 
 17.88         70 
 17.9          81 
 17.92         71 
 17.94         65 
 17.96         72 
 17.98         77 
 18            63 
 18.02         64 
 18.04         72 
 18.06         76 
 18.08         63 
 18.1          83 
 18.12         74 
 18.14         59 
 18.16         62 
 18.18         69 
 18.2          76 
 18.22         71 
 18.24         64 
 18.26         70 
 18.28         80 
 18.3          87 
 18.32         54 
 18.34         84 
 18.36         85 
 18.38         62 
 18.4          76 
 18.42         75 
 18.44         87 
 18.46         83 
 18.48         80 
 18.5          86 
 18.52         63 
 18.54         75 
 18.56         69 
 18.58         61 
 18.6          63 
 18.62         78 
 18.64         68 
 18.66         69 
 18.68         50 
 18.7          78 
 18.72         78 
 18.74         75 
 18.76         95 
 18.78         71 
 18.8          75 
 18.82         72 
 18.84         81 
 18.86         97 
 18.88         77 
 18.9          76 
 18.92         82 
 18.94         92 
 18.96         87 
 18.98         102 
 19            98 
 19.02         101 
 19.04         113 
 19.06         93 
 19.08         104 
 19.1          96 
 19.12         80 
 19.14         87 
 19.16         93 
 19.18         78 
 19.2          90 
 19.22         77 
 19.24         78 
 19.26         79 
 19.28         78 
 19.3          72 
 19.32         73 
 19.34         70 
 19.36         82 
 19.38         77 
 19.4          82 
 19.42         88 
 19.44         77 
 19.46         73 
 19.48         74 
 19.5          89 
 19.52         81 
 19.54         90 
 19.56         89 
 19.58         88 
 19.6          112 
 19.62         95 
 19.64         86 
 19.66         92 
 19.68         117 
 19.7          139 
 19.72         129 
 19.74         144 
 19.76         165 
 19.78         195 
 19.8          204 
 19.82         254 
 19.84         274 
 19.86         287 
 19.88         387 
 19.9          509 
 19.92         596 
 19.94         636 
 19.96         793 
 19.98         1009 
 20            1204 
 20.02         1409 
 20.04         1668 
 20.06         1958 
 20.08         2159 
 20.1          2288 
 20.12         2254 
 20.14         2323 
 20.16         2513 
 20.18         2880 
 20.2          3320 
 20.22         3965 
 20.24         4746 
 20.26         5355 
 20.28         5794 
 20.3          5968 
 20.32         5729 
 20.34         4879 
 20.36         3797 
 20.38         2785 
 20.4          1915 
 20.42         1240 
 20.44         863 
 20.46         628 
 20.48         423 
 20.5          368 
 20.52         309 
 20.54         264 
 20.56         230 
 20.58         206 
 20.6          168 
 20.62         140 
 20.64         117 
 20.66         133 
 20.68         99 
 20.7          106 
 20.72         106 
 20.74         96 
 20.76         94 
 20.78         81 
 20.8          80 
 20.82         89 
 20.84         82 
 20.86         92 
 20.88         75 
 20.9          89 
 20.92         80 
 20.94         85 
 20.96         93 
 20.98         93 
 21            90 
 21.02         98 
 21.04         76 
 21.06         98 
 21.08         105 
 21.1          90 
 21.12         108 
 21.14         95 
 21.16         120 
 21.18         111 
 21.2          106 
 21.22         137 
 21.24         163 
 21.26         189 
 21.28         219 
 21.3          233 
 21.32         255 
 21.34         292 
 21.36         333 
 21.38         363 
 21.4          358 
 21.42         403 
 21.44         384 
 21.46         423 
 21.48         439 
 21.5          465 
 21.52         477 
 21.54         434 
 21.56         455 
 21.58         416 
 21.6          397 
 21.62         380 
 21.64         368 
 21.66         290 
 21.68         280 
 21.7          338 
 21.72         320 
 21.74         313 
 21.76         336 
 21.78         361 
 21.8          340 
 21.82         329 
 21.84         293 
 21.86         256 
 21.88         258 
 21.9          185 
 21.92         154 
 21.94         124 
 21.96         117 
 21.98         111 
 22            99 
 22.02         105 
 22.04         87 
 22.06         100 
 22.08         100 
 22.1          86 
 22.12         112 
 22.14         92 
 22.16         104 
 22.18         123 
 22.2          120 
 22.22         123 
 22.24         157 
 22.26         167 
 22.28         173 
 22.3          195 
 22.32         233 
 22.34         216 
 22.36         253 
 22.38         285 
 22.4          229 
 22.42         241 
 22.44         253 
 22.46         252 
 22.48         266 
 22.5          314 
 22.52         393 
 22.54         418 
 22.56         559 
 22.58         629 
 22.6          852 
 22.62         869 
 22.64         919 
 22.66         873 
 22.68         701 
 22.7          630 
 22.72         462 
 22.74         339 
 22.76         258 
 22.78         182 
 22.8          184 
 22.82         135 
 22.84         147 
 22.86         185 
 22.88         179 
 22.9          171 
 22.92         181 
 22.94         186 
 22.96         233 
 22.98         241 
 23            244 
 23.02         250 
 23.04         242 
 23.06         244 
 23.08         249 
 23.1          259 
 23.12         261 
 23.14         274 
 23.16         286 
 23.18         283 
 23.2          307 
 23.22         286 
 23.24         300 
 23.26         253 
 23.28         236 
 23.3          234 
 23.32         238 
 23.34         179 
 23.36         178 
 23.38         192 
 23.4          143 
 23.42         183 
 23.44         175 
 23.46         202 
 23.48         236 
 23.5          306 
 23.52         330 
 23.54         377 
 23.56         515 
 23.58         626 
 23.6          785 
 23.62         892 
 23.64         1047 
 23.66         1186 
 23.68         1256 
 23.7          1325 
 23.72         1341 
 23.74         1317 
 23.76         1349 
 23.78         1338 
 23.8          1242 
 23.82         1139 
 23.84         1098 
 23.86         1069 
 23.88         1095 
 23.9          1143 
 23.92         1259 
 23.94         1399 
 23.96         1563 
 23.98         1537 
 24            1398 
 24.02         1230 
 24.04         1006 
 24.06         754 
 24.08         560 
 24.1          450 
 24.12         298 
 24.14         244 
 24.16         213 
 24.18         157 
 24.2          142 
 24.22         116 
 24.24         124 
 24.26         93 
 24.28         100 
 24.3          94 
 24.32         110 
 24.34         103 
 24.36         131 
 24.38         102 
 24.4          104 
 24.42         110 
 24.44         136 
 24.46         148 
 24.48         167 
 24.5          143 
 24.52         135 
 24.54         106 
 24.56         140 
 24.58         114 
 24.6          126 
 24.62         100 
 24.64         117 
 24.66         129 
 24.68         130 
 24.7          154 
 24.72         161 
 24.74         188 
 24.76         241 
 24.78         206 
 24.8          200 
 24.82         220 
 24.84         211 
 24.86         188 
 24.88         182 
 24.9          161 
 24.92         154 
 24.94         147 
 24.96         122 
 24.98         141 
 25            143 
 25.02         120 
 25.04         104 
 25.06         109 
 25.08         87 
 25.1          90 
 25.12         114 
 25.14         101 
 25.16         89 
 25.18         104 
 25.2          101 
 25.22         85 
 25.24         88 
 25.26         87 
 25.28         77 
 25.3          93 
 25.32         62 
 25.34         92 
 25.36         81 
 25.38         79 
 25.4          70 
 25.42         68 
 25.44         77 
 25.46         79 
 25.48         63 
 25.5          80 
 25.52         66 
 25.54         74 
 25.56         66 
 25.58         78 
 25.6          74 
 25.62         83 
 25.64         85 
 25.66         79 
 25.68         81 
 25.7          78 
 25.72         81 
 25.74         107 
 25.76         98 
 25.78         99 
 25.8          110 
 25.82         107 
 25.84         138 
 25.86         168 
 25.88         191 
 25.9          207 
 25.92         255 
 25.94         281 
 25.96         366 
 25.98         418 
 26            436 
 26.02         513 
 26.04         549 
 26.06         491 
 26.08         404 
 26.1          374 
 26.12         263 
 26.14         191 
 26.16         171 
 26.18         136 
 26.2          102 
 26.22         102 
 26.24         78 
 26.26         73 
 26.28         77 
 26.3          64 
 26.32         72 
 26.34         71 
 26.36         98 
 26.38         80 
 26.4          73 
 26.42         93 
 26.44         80 
 26.46         77 
 26.48         107 
 26.5          73 
 26.52         99 
 26.54         122 
 26.56         126 
 26.58         118 
 26.6          147 
 26.62         166 
 26.64         204 
 26.66         228 
 26.68         253 
 26.7          322 
 26.72         389 
 26.74         562 
 26.76         649 
 26.78         782 
 26.8          891 
 26.82         892 
 26.84         1011 
 26.86         941 
 26.88         790 
 26.9          678 
 26.92         513 
 26.94         398 
 26.96         272 
 26.98         189 
 27            136 
 27.02         137 
 27.04         128 
 27.06         100 
 27.08         90 
 27.1          86 
 27.12         77 
 27.14         78 
 27.16         90 
 27.18         91 
 27.2          91 
 27.22         80 
 27.24         78 
 27.26         102 
 27.28         84 
 27.3          73 
 27.32         74 
 27.34         90 
 27.36         83 
 27.38         68 
 27.4          85 
 27.42         73 
 27.44         78 
 27.46         59 
 27.48         89 
 27.5          66 
 27.52         65 
 27.54         65 
 27.56         69 
 27.58         65 
 27.6          76 
 27.62         65 
 27.64         89 
 27.66         65 
 27.68         76 
 27.7          85 
 27.72         81 
 27.74         78 
 27.76         89 
 27.78         100 
 27.8          78 
 27.82         84 
 27.84         89 
 27.86         101 
 27.88         99 
 27.9          110 
 27.92         107 
 27.94         100 
 27.96         122 
 27.98         132 
 28            161 
 28.02         152 
 28.04         189 
 28.06         196 
 28.08         226 
 28.1          260 
 28.12         318 
 28.14         372 
 28.16         381 
 28.18         505 
 28.2          516 
 28.22         626 
 28.24         600 
 28.26         595 
 28.28         528 
 28.3          475 
 28.32         424 
 28.34         339 
 28.36         305 
 28.38         238 
 28.4          240 
 28.42         215 
 28.44         268 
 28.46         285 
 28.48         305 
 28.5          346 
 28.52         434 
 28.54         584 
 28.56         780 
 28.58         1004 
 28.6          1171 
 28.62         1458 
 28.64         1702 
 28.66         1753 
 28.68         1797 
 28.7          1696 
 28.72         1433 
 28.74         1119 
 28.76         900 
 28.78         683 
 28.8          475 
 28.82         343 
 28.84         315 
 28.86         277 
 28.88         272 
 28.9          281 
 28.92         351 
 28.94         426 
 28.96         500 
 28.98         640 
 29            684 
 29.02         882 
 29.04         923 
 29.06         884 
 29.08         893 
 29.1          760 
 29.12         603 
 29.14         532 
 29.16         387 
 29.18         280 
 29.2          237 
 29.22         185 
 29.24         142 
 29.26         139 
 29.28         128 
 29.3          96 
 29.32         125 
 29.34         105 
 29.36         123 
 29.38         150 
 29.4          131 
 29.42         148 
 29.44         185 
 29.46         195 
 29.48         275 
 29.5          285 
 29.52         353 
 29.54         397 
 29.56         449 
 29.58         480 
 29.6          540 
 29.62         469 
 29.64         454 
 29.66         353 
 29.68         302 
 29.7          266 
 29.72         206 
 29.74         155 
 29.76         168 
 29.78         135 
 29.8          116 
 29.82         126 
 29.84         112 
 29.86         80 
 29.88         101 
 29.9          85 
 29.92         80 
 29.94         88 
 29.96         79 
 29.98         72 
 30            88 
 30.02         88 
 30.04         76 
 30.06         92 
 30.08         79 
 30.1          74 
 30.12         91 
 30.14         77 
 30.16         79 
 30.18         78 
 30.2          77 
 30.22         77 
 30.24         63 
 30.26         72 
 30.28         96 
 30.3          75 
 30.32         86 
 30.34         84 
 30.36         76 
 30.38         92 
 30.4          89 
 30.42         100 
 30.44         108 
 30.46         92 
 30.48         120 
 30.5          91 
 30.52         128 
 30.54         124 
 30.56         103 
 30.58         100 
 30.6          83 
 30.62         85 
 30.64         92 
 30.66         85 
 30.68         86 
 30.7          62 
 30.72         61 
 30.74         65 
 30.76         67 
 30.78         73 
 30.8          59 
 30.82         81 
 30.84         83 
 30.86         63 
 30.88         78 
 30.9          73 
 30.92         66 
 30.94         94 
 30.96         87 
 30.98         90 
 31            89 
 31.02         86 
 31.04         98 
 31.06         90 
 31.08         120 
 31.1          100 
 31.12         108 
 31.14         97 
 31.16         124 
 31.18         109 
 31.2          108 
 31.22         124 
 31.24         126 
 31.26         129 
 31.28         155 
 31.3          200 
 31.32         187 
 31.34         265 
 31.36         316 
 31.38         409 
 31.4          445 
 31.42         588 
 31.44         666 
 31.46         704 
 31.48         751 
 31.5          802 
 31.52         752 
 31.54         683 
 31.56         589 
 31.58         533 
 31.6          404 
 31.62         312 
 31.64         251 
 31.66         227 
 31.68         162 
 31.7          122 
 31.72         92 
 31.74         110 
 31.76         93 
 31.78         84 
 31.8          81 
 31.82         95 
 31.84         83 
 31.86         73 
 31.88         58 
 31.9          70 
 31.92         81 
 31.94         71 
 31.96         82 
 31.98         85 
 32            84 
 32.02         100 
 32.04         106 
 32.06         103 
 32.08         109 
 32.1          116 
 32.12         151 
 32.14         173 
 32.16         220 
 32.18         208 
 32.2          239 
 32.22         255 
 32.24         237 
 32.26         245 
 32.28         240 
 32.3          247 
 32.32         226 
 32.34         201 
 32.36         184 
 32.38         245 
 32.4          240 
 32.42         282 
 32.44         305 
 32.46         310 
 32.48         335 
 32.5          361 
 32.52         311 
 32.54         278 
 32.56         254 
 32.58         201 
 32.6          215 
 32.62         168 
 32.64         166 
 32.66         188 
 32.68         190 
 32.7          242 
 32.72         308 
 32.74         396 
 32.76         455 
 32.78         607 
 32.8          779 
 32.82         869 
 32.84         966 
 32.86         958 
 32.88         963 
 32.9          858 
 32.92         731 
 32.94         631 
 32.96         538 
 32.98         376 
 33            337 
 33.02         211 
 33.04         190 
 33.06         164 
 33.08         145 
 33.1          120 
 33.12         93 
 33.14         108 
 33.16         97 
 33.18         77 
 33.2          94 
 33.22         66 
 33.24         72 
 33.26         66 
 33.28         64 
 33.3          63 
 33.32         62 
 33.34         76 
 33.36         62 
 33.38         76 
 33.4          69 
 33.42         69 
 33.44         69 
 33.46         70 
 33.48         72 
 33.5          64 
 33.52         58 
 33.54         49 
 33.56         67 
 33.58         62 
 33.6          47 
 33.62         70 
 33.64         64 
 33.66         62 
 33.68         67 
 33.7          67 
 33.72         76 
 33.74         66 
 33.76         76 
 33.78         89 
 33.8          77 
 33.82         90 
 33.84         104 
 33.86         100 
 33.88         114 
 33.9          135 
 33.92         154 
 33.94         175 
 33.96         172 
 33.98         157 
 34            157 
 34.02         170 
 34.04         160 
 34.06         130 
 34.08         148 
 34.1          152 
 34.12         144 
 34.14         137 
 34.16         157 
 34.18         170 
 34.2          183 
 34.22         181 
 34.24         179 
 34.26         168 
 34.28         180 
 34.3          167 
 34.32         161 
 34.34         160 
 34.36         150 
 34.38         154 
 34.4          138 
 34.42         119 
 34.44         154 
 34.46         142 
 34.48         118 
 34.5          112 
 34.52         129 
 34.54         103 
 34.56         106 
 34.58         79 
 34.6          89 
 34.62         100 
 34.64         90 
 34.66         83 
 34.68         74 
 34.7          79 
 34.72         90 
 34.74         101 
 34.76         114 
 34.78         99 
 34.8          100 
 34.82         81 
 34.84         90 
 34.86         77 
 34.88         73 
 34.9          99 
 34.92         88 
 34.94         80 
 34.96         75 
 34.98         68 
 35            92 
 35.02         97 
 35.04         117 
 35.06         118 
 35.08         129 
 35.1          141 
 35.12         198 
 35.14         227 
 35.16         302 
 35.18         351 
 35.2          492 
 35.22         525 
 35.24         649 
 35.26         680 
 35.28         646 
 35.3          784 
 35.32         807 
 35.34         779 
 35.36         875 
 35.38         1043 
 35.4          1134 
 35.42         1363 
 35.44         1493 
 35.46         1532 
 35.48         1674 
 35.5          1857 
 35.52         1889 
 35.54         1719 
 35.56         1711 
 35.58         1590 
 35.6          1442 
 35.62         1268 
 35.64         1209 
 35.66         1028 
 35.68         928 
 35.7          801 
 35.72         693 
 35.74         598 
 35.76         523 
 35.78         368 
 35.8          325 
 35.82         277 
 35.84         237 
 35.86         200 
 35.88         170 
 35.9          150 
 35.92         148 
 35.94         139 
 35.96         95 
 35.98         95 
 36            96 
 36.02         109 
 36.04         96 
 36.06         115 
 36.08         90 
 36.1          77 
 36.12         98 
 36.14         104 
 36.16         105 
 36.18         135 
 36.2          116 
 36.22         131 
 36.24         126 
 36.26         128 
 36.28         113 
 36.3          122 
 36.32         110 
 36.34         109 
 36.36         109 
 36.38         86 
 36.4          111 
 36.42         87 
 36.44         87 
 36.46         112 
 36.48         105 
 36.5          127 
 36.52         112 
 36.54         114 
 36.56         108 
 36.58         92 
 36.6          93 
 36.62         99 
 36.64         76 
 36.66         79 
 36.68         63 
 36.7          75 
 36.72         51 
 36.74         55 
 36.76         67 
 36.78         69 
 36.8          63 
 36.82         61 
 36.84         53 
 36.86         55 
 36.88         53 
 36.9          63 
 36.92         61 
 36.94         58 
 36.96         63 
 36.98         66 
 37            66 
 37.02         60 
 37.04         75 
 37.06         69 
 37.08         72 
 37.1          63 
 37.12         76 
 37.14         72 
 37.16         90 
 37.18         71 
 37.2          73 
 37.22         61 
 37.24         61 
 37.26         69 
 37.28         80 
 37.3          56 
 37.32         71 
 37.34         73 
 37.36         73 
 37.38         73 
 37.4          66 
 37.42         73 
 37.44         62 
 37.46         70 
 37.48         57 
 37.5          64 
 37.52         63 
 37.54         65 
 37.56         72 
 37.58         81 
 37.6          59 
 37.62         66 
 37.64         77 
 37.66         67 
 37.68         60 
 37.7          44 
 37.72         60 
 37.74         75 
 37.76         61 
 37.78         67 
 37.8          66 
 37.82         66 
 37.84         61 
 37.86         54 
 37.88         73 
 37.9          90 
 37.92         77 
 37.94         82 
 37.96         96 
 37.98         69 
 38            83 
 38.02         73 
 38.04         92 
 38.06         72 
 38.08         79 
 38.1          74 
 38.12         64 
 38.14         68 
 38.16         64 
 38.18         70 
 38.2          64 
 38.22         57 
 38.24         69 
 38.26         56 
 38.28         63 
 38.3          52 
 38.32         57 
 38.34         69 
 38.36         75 
 38.38         70 
 38.4          58 
 38.42         65 
 38.44         80 
 38.46         73 
 38.48         61 
 38.5          81 
 38.52         86 
 38.54         82 
 38.56         102 
 38.58         98 
 38.6          93 
 38.62         86 
 38.64         94 
 38.66         117 
 38.68         87 
 38.7          86 
 38.72         77 
 38.74         76 
 38.76         86 
 38.78         89 
 38.8          78 
 38.82         74 
 38.84         64 
 38.86         90 
 38.88         76 
 38.9          80 
 38.92         84 
 38.94         96 
 38.96         75 
 38.98         91 
 39            79 
 39.02         82 
 39.04         91 
 39.06         94 
 39.08         85 
 39.1          69 
 39.12         79 
 39.14         65 
 39.16         71 
 39.18         73 
 39.2          74 
 39.22         73 
 39.24         80 
 39.26         54 
 39.28         68 
 39.3          60 
 39.32         64 
 39.34         68 
 39.36         59 
 39.38         54 
 39.4          62 
 39.42         72 
 39.44         73 
 39.46         85 
 39.48         64 
 39.5          82 
 39.52         78 
 39.54         73 
 39.56         74 
 39.58         73 
 39.6          79 
 39.62         74 
 39.64         72 
 39.66         85 
 39.68         81 
 39.7          77 
 39.72         80 
 39.74         69 
 39.76         61 
 39.78         67 
 39.8          62 
 39.82         68 
 39.84         63 
 39.86         58 
 39.88         68 
 39.9          50 
 39.92         59 
 39.94         49 
 39.96         44 
 39.98         65 
 40            74 
 40.02         49 
 40.04         48 
 40.06         53 
 40.08         67 
 40.1          65 
 40.12         47 
 40.14         53 
 40.16         50 
 40.18         47 
 40.2          54 
 40.22         56 
 40.24         45 
 40.26         47 
 40.28         52 
 40.3          48 
 40.32         68 
 40.34         60 
 40.36         51 
 40.38         68 
 40.4          55 
 40.42         56 
 40.44         72 
 40.46         67 
 40.48         63 
 40.5          71 
 40.52         61 
 40.54         86 
 40.56         81 
 40.58         64 
 40.6          65 
 40.62         75 
 40.64         86 
 40.66         104 
 40.68         95 
 40.7          110 
 40.72         134 
 40.74         130 
 40.76         140 
 40.78         164 
 40.8          150 
 40.82         157 
 40.84         169 
 40.86         151 
 40.88         131 
 40.9          131 
 40.92         103 
 40.94         99 
 40.96         93 
 40.98         80 
 41            98 
 41.02         92 
 41.04         87 
 41.06         97 
 41.08         123 
 41.1          148 
 41.12         171 
 41.14         163 
 41.16         223 
 41.18         258 
 41.2          292 
 41.22         309 
 41.24         348 
 41.26         335 
 41.28         320 
 41.3          275 
 41.32         269 
 41.34         278 
 41.36         252 
 41.38         208 
 41.4          202 
 41.42         174 
 41.44         169 
 41.46         133 
 41.48         136 
 41.5          109 
 41.52         104 
 41.54         102 
 41.56         86 
 41.58         93 
 41.6          91 
 41.62         70 
 41.64         83 
 41.66         55 
 41.68         85 
 41.7          75 
 41.72         65 
 41.74         58 
 41.76         64 
 41.78         58 
 41.8          69 
 41.82         56 
 41.84         67 
 41.86         57 
 41.88         75 
 41.9          70 
 41.92         70 
 41.94         62 
 41.96         71 
 41.98         78 
 42            78 
 42.02         76 
 42.04         72 
 42.06         71 
 42.08         89 
 42.1          66 
 42.12         67 
 42.14         71 
 42.16         67 
 42.18         63 
 42.2          61 
 42.22         82 
 42.24         78 
 42.26         67 
 42.28         67 
 42.3          72 
 42.32         56 
 42.34         62 
 42.36         74 
 42.38         76 
 42.4          81 
 42.42         80 
 42.44         81 
 42.46         91 
 42.48         90 
 42.5          107 
 42.52         88 
 42.54         76 
 42.56         90 
 42.58         86 
 42.6          86 
 42.62         79 
 42.64         96 
 42.66         78 
 42.68         77 
 42.7          96 
 42.72         79 
 42.74         84 
 42.76         97 
 42.78         95 
 42.8          94 
 42.82         103 
 42.84         90 
 42.86         97 
 42.88         125 
 42.9          104 
 42.92         136 
 42.94         161 
 42.96         164 
 42.98         189 
 43            258 
 43.02         247 
 43.04         242 
 43.06         239 
 43.08         215 
 43.1          252 
 43.12         230 
 43.14         192 
 43.16         210 
 43.18         204 
 43.2          159 
 43.22         156 
 43.24         137 
 43.26         120 
 43.28         98 
 43.3          128 
 43.32         128 
 43.34         140 
 43.36         103 
 43.38         125 
 43.4          115 
 43.42         116 
 43.44         111 
 43.46         100 
 43.48         90 
 43.5          86 
 43.52         94 
 43.54         87 
 43.56         79 
 43.58         71 
 43.6          57 
 43.62         68 
 43.64         74 
 43.66         58 
 43.68         78 
 43.7          74 
 43.72         73 
 43.74         70 
 43.76         81 
 43.78         80 
 43.8          80 
 43.82         83 
 43.84         99 
 43.86         93 
 43.88         80 
 43.9          83 
 43.92         84 
 43.94         86 
 43.96         83 
 43.98         73 
 44            49 
 44.02         82 
 44.04         64 
 44.06         74 
 44.08         83 
 44.1          69 
 44.12         75 
 44.14         72 
 44.16         97 
 44.18         111 
 44.2          96 
 44.22         112 
 44.24         107 
 44.26         110 
 44.28         103 
 44.3          97 
 44.32         86 
 44.34         76 
 44.36         90 
 44.38         86 
 44.4          82 
 44.42         69 
 44.44         73 
 44.46         71 
 44.48         68 
 44.5          63 
 44.52         71 
 44.54         59 
 44.56         67 
 44.58         76 
 44.6          88 
 44.62         66 
 44.64         94 
 44.66         106 
 44.68         104 
 44.7          111 
 44.72         111 
 44.74         128 
 44.76         133 
 44.78         100 
 44.8          122 
 44.82         122 
 44.84         116 
 44.86         115 
 44.88         106 
 44.9          132 
 44.92         117 
 44.94         96 
 44.96         72 
 44.98         87 
 45            78 
 45.02         72 
 45.04         65 
 45.06         82 
 45.08         66 
 45.1          82 
 45.12         81 
 45.14         63 
 45.16         63 
 45.18         77 
 45.2          62 
 45.22         51 
 45.24         61 
 45.26         60 
 45.28         63 
 45.3          63 
 45.32         62 
 45.34         81 
 45.36         64 
 45.38         72 
 45.4          53 
 45.42         88 
 45.44         60 
 45.46         84 
 45.48         77 
 45.5          63 
 45.52         97 
 45.54         83 
 45.56         88 
 45.58         84 
 45.6          98 
 45.62         102 
 45.64         96 
 45.66         92 
 45.68         101 
 45.7          111 
 45.72         108 
 45.74         98 
 45.76         128 
 45.78         125 
 45.8          155 
 45.82         172 
 45.84         217 
 45.86         254 
 45.88         277 
 45.9          298 
 45.92         363 
 45.94         355 
 45.96         359 
 45.98         398 
 46            388 
 46.02         457 
 46.04         523 
 46.06         533 
 46.08         573 
 46.1          661 
 46.12         687 
 46.14         699 
 46.16         677 
 46.18         718 
 46.2          642 
 46.22         587 
 46.24         555 
 46.26         463 
 46.28         431 
 46.3          406 
 46.32         338 
 46.34         269 
 46.36         260 
 46.38         218 
 46.4          220 
 46.42         224 
 46.44         270 
 46.46         277 
 46.48         352 
 46.5          423 
 46.52         498 
 46.54         607 
 46.56         654 
 46.58         842 
 46.6          853 
 46.62         928 
 46.64         892 
 46.66         909 
 46.68         924 
 46.7          841 
 46.72         765 
 46.74         772 
 46.76         720 
 46.78         653 
 46.8          603 
 46.82         543 
 46.84         491 
 46.86         466 
 46.88         371 
 46.9          307 
 46.92         322 
 46.94         276 
 46.96         270 
 46.98         274 
 47            272 
 47.02         269 
 47.04         279 
 47.06         273 
 47.08         259 
 47.1          261 
 47.12         266 
 47.14         268 
 47.16         220 
 47.18         206 
 47.2          224 
 47.22         147 
 47.24         154 
 47.26         120 
 47.28         133 
 47.3          82 
 47.32         84 
 47.34         72 
 47.36         85 
 47.38         86 
 47.4          88 
 47.42         96 
 47.44         85 
 47.46         85 
 47.48         100 
 47.5          91 
 47.52         75 
 47.54         87 
 47.56         99 
 47.58         92 
 47.6          95 
 47.62         83 
 47.64         79 
 47.66         66 
 47.68         79 
 47.7          83 
 47.72         67 
 47.74         85 
 47.76         93 
 47.78         76 
 47.8          67 
 47.82         92 
 47.84         64 
 47.86         71 
 47.88         66 
 47.9          71 
 47.92         84 
 47.94         90 
 47.96         70 
 47.98         54 
 48            66 
 48.02         69 
 48.04         77 
 48.06         87 
 48.08         69 
 48.1          86 
 48.12         85 
 48.14         74 
 48.16         79 
 48.18         91 
 48.2          87 
 48.22         88 
 48.24         133 
 48.26         139 
 48.28         138 
 48.3          135 
 48.32         173 
 48.34         149 
 48.36         133 
 48.38         143 
 48.4          153 
 48.42         148 
 48.44         121 
 48.46         120 
 48.48         125 
 48.5          123 
 48.52         94 
 48.54         104 
 48.56         88 
 48.58         98 
 48.6          85 
 48.62         78 
 48.64         75 
 48.66         65 
 48.68         77 
 48.7          55 
 48.72         78 
 48.74         94 
 48.76         72 
 48.78         76 
 48.8          69 
 48.82         103 
 48.84         100 
 48.86         114 
 48.88         113 
 48.9          145 
 48.92         148 
 48.94         179 
 48.96         171 
 48.98         203 
 49            210 
 49.02         197 
 49.04         207 
 49.06         226 
 49.08         225 
 49.1          256 
 49.12         256 
 49.14         255 
 49.16         264 
 49.18         236 
 49.2          302 
 49.22         261 
 49.24         336 
 49.26         335 
 49.28         330 
 49.3          335 
 49.32         342 
 49.34         319 
 49.36         324 
 49.38         287 
 49.4          273 
 49.42         236 
 49.44         224 
 49.46         228 
 49.48         188 
 49.5          179 
 49.52         139 
 49.54         124 
 49.56         109 
 49.58         123 
 49.6          82 
 49.62         72 
 49.64         81 
 49.66         80 
 49.68         61 
 49.7          75 
 49.72         79 
 49.74         74 
 49.76         80 
 49.78         64 
 49.8          65 
 49.82         68 
 49.84         68 
 49.86         60 
 49.88         73 
 49.9          67 
 49.92         65 
 49.94         94 
 49.96         80 
 49.98         74 
 50            99 
 50.02         107 
 50.04         97 
 50.06         128 
 50.08         180 
 50.1          159 
 50.12         184 
 50.14         195 
 50.16         226 
 50.18         244 
 50.2          218 
 50.22         181 
 50.24         186 
 50.26         174 
 50.28         164 
 50.3          160 
 50.32         159 
 50.34         135 
 50.36         100 
 50.38         115 
 50.4          103 
 50.42         92 
 50.44         74 
 50.46         72 
 50.48         81 
 50.5          88 
 50.52         109 
 50.54         98 
 50.56         107 
 50.58         111 
 50.6          122 
 50.62         124 
 50.64         109 
 50.66         119 
 50.68         123 
 50.7          132 
 50.72         115 
 50.74         109 
 50.76         112 
 50.78         105 
 50.8          105 
 50.82         99 
 50.84         105 
 50.86         79 
 50.88         101 
 50.9          91 
 50.92         77 
 50.94         86 
 50.96         77 
 50.98         77 
 51            90 
 51.02         94 
 51.04         125 
 51.06         134 
 51.08         110 
 51.1          162 
 51.12         186 
 51.14         175 
 51.16         197 
 51.18         191 
 51.2          215 
 51.22         249 
 51.24         272 
 51.26         295 
 51.28         301 
 51.3          320 
 51.32         345 
 51.34         350 
 51.36         345 
 51.38         325 
 51.4          317 
 51.42         291 
 51.44         281 
 51.46         287 
 51.48         284 
 51.5          291 
 51.52         276 
 51.54         269 
 51.56         319 
 51.58         264 
 51.6          276 
 51.62         251 
 51.64         242 
 51.66         210 
 51.68         202 
 51.7          173 
 51.72         170 
 51.74         130 
 51.76         137 
 51.78         134 
 51.8          111 
 51.82         82 
 51.84         100 
 51.86         77 
 51.88         68 
 51.9          76 
 51.92         75 
 51.94         81 
 51.96         55 
 51.98         79 
 52            65 
 52.02         76 
 52.04         67 
 52.06         60 
 52.08         59 
 52.1          76 
 52.12         87 
 52.14         60 
 52.16         63 
 52.18         55 
 52.2          61 
 52.22         75 
 52.24         72 
 52.26         74 
 52.28         77 
 52.3          77 
 52.32         74 
 52.34         77 
 52.36         80 
 52.38         82 
 52.4          88 
 52.42         90 
 52.44         84 
 52.46         95 
 52.48         102 
 52.5          103 
 52.52         88 
 52.54         88 
 52.56         86 
 52.58         76 
 52.6          76 
 52.62         80 
 52.64         84 
 52.66         88 
 52.68         81 
 52.7          72 
 52.72         77 
 52.74         67 
 52.76         75 
 52.78         60 
 52.8          68 
 52.82         81 
 52.84         70 
 52.86         71 
 52.88         66 
 52.9          77 
 52.92         86 
 52.94         84 
 52.96         69 
 52.98         77 
 53            75 
 53.02         97 
 53.04         105 
 53.06         124 
 53.08         103 
 53.1          158 
 53.12         137 
 53.14         169 
 53.16         196 
 53.18         248 
 53.2          259 
 53.22         267 
 53.24         322 
 53.26         316 
 53.28         344 
 53.3          319 
 53.32         352 
 53.34         327 
 53.36         302 
 53.38         346 
 53.4          295 
 53.42         298 
 53.44         251 
 53.46         245 
 53.48         238 
 53.5          213 
 53.52         193 
 53.54         162 
 53.56         166 
 53.58         145 
 53.6          102 
 53.62         100 
 53.64         115 
 53.66         119 
 53.68         87 
 53.7          77 
 53.72         93 
 53.74         96 
 53.76         93 
 53.78         78 
 53.8          70 
 53.82         80 
 53.84         81 
 53.86         85 
 53.88         68 
 53.9          87 
 53.92         77 
 53.94         92 
 53.96         116 
 53.98         95 
 54            133 
 54.02         115 
 54.04         123 
 54.06         136 
 54.08         130 
 54.1          156 
 54.12         169 
 54.14         183 
 54.16         181 
 54.18         181 
 54.2          157 
 54.22         145 
 54.24         192 
 54.26         168 
 54.28         154 
 54.3          149 
 54.32         150 
 54.34         113 
 54.36         113 
 54.38         94 
 54.4          83 
 54.42         99 
 54.44         90 
 54.46         77 
 54.48         77 
 54.5          77 
 54.52         79 
 54.54         75 
 54.56         62 
 54.58         80 
 54.6          77 
 54.62         87 
 54.64         85 
 54.66         68 
 54.68         82 
 54.7          74 
 54.72         76 
 54.74         72 
 54.76         68 
 54.78         73 
 54.8          94 
 54.82         89 
 54.84         113 
 54.86         116 
 54.88         131 
 54.9          137 
 54.92         144 
 54.94         162 
 54.96         185 
 54.98         188 
 55            170 
 55.02         208 
 55.04         211 
 55.06         211 
 55.08         208 
 55.1          201 
 55.12         242 
 55.14         265 
 55.16         278 
 55.18         326 
 55.2          325 
 55.22         354 
 55.24         414 
 55.26         445 
 55.28         465 
 55.3          524 
 55.32         562 
 55.34         650 
 55.36         727 
 55.38         747 
 55.4          811 
 55.42         950 
 55.44         959 
 55.46         1044 
 55.48         1052 
 55.5          1062 
 55.52         1080 
 55.54         1031 
 55.56         1050 
 55.58         988 
 55.6          981 
 55.62         921 
 55.64         885 
 55.66         843 
 55.68         791 
 55.7          760 
 55.72         734 
 55.74         649 
 55.76         647 
 55.78         571 
 55.8          533 
 55.82         485 
 55.84         461 
 55.86         401 
 55.88         381 
 55.9          319 
 55.92         308 
 55.94         242 
 55.96         213 
 55.98         238 
 56            179 
 56.02         174 
 56.04         155 
 56.06         153 
 56.08         162 
 56.1          126 
 56.12         112 
 56.14         134 
 56.16         103 
 56.18         97 
 56.2          98 
 56.22         115 
 56.24         117 
 56.26         134 
 56.28         124 
 56.3          114 
 56.32         137 
 56.34         103 
 56.36         154 
 56.38         135 
 56.4          138 
 56.42         120 
 56.44         115 
 56.46         119 
 56.48         125 
 56.5          126 
 56.52         94 
 56.54         104 
 56.56         89 
 56.58         87 
 56.6          98 
 56.62         76 
 56.64         88 
 56.66         83 
 56.68         71 
 56.7          73 
 56.72         76 
 56.74         72 
 56.76         69 
 56.78         88 
 56.8          73 
 56.82         80 
 56.84         84 
 56.86         69 
 56.88         73 
 56.9          81 
 56.92         71 
 56.94         86 
 56.96         78 
 56.98         73 
 57            93 
 57.02         101 
 57.04         106 
 57.06         84 
 57.08         105 
 57.1          89 
 57.12         92 
 57.14         94 
 57.16         106 
 57.18         100 
 57.2          111 
 57.22         114 
 57.24         109 
 57.26         115 
 57.28         114 
 57.3          109 
 57.32         103 
 57.34         91 
 57.36         94 
 57.38         82 
 57.4          94 
 57.42         79 
 57.44         100 
 57.46         83 
 57.48         83 
 57.5          93 
 57.52         78 
 57.54         88 
 57.56         78 
 57.58         89 
 57.6          120 
 57.62         106 
 57.64         112 
 57.66         128 
 57.68         137 
 57.7          144 
 57.72         120 
 57.74         118 
 57.76         136 
 57.78         135 
 57.8          129 
 57.82         136 
 57.84         102 
 57.86         126 
 57.88         106 
 57.9          100 
 57.92         142 
 57.94         136 
 57.96         120 
 57.98         118 
 58            132 
 58.02         146 
 58.04         124 
 58.06         149 
 58.08         163 
 58.1          149 
 58.12         159 
 58.14         173 
 58.16         165 
 58.18         165 
 58.2          168 
 58.22         154 
 58.24         142 
 58.26         122 
 58.28         127 
 58.3          135 
 58.32         130 
 58.34         113 
 58.36         91 
 58.38         103 
 58.4          104 
 58.42         95 
 58.44         97 
 58.46         112 
 58.48         97 
 58.5          104 
 58.52         89 
 58.54         111 
 58.56         95 
 58.58         91 
 58.6          99 
 58.62         108 
 58.64         89 
 58.66         93 
 58.68         81 
 58.7          72 
 58.72         71 
 58.74         64 
 58.76         83 
 58.78         83 
 58.8          84 
 58.82         71 
 58.84         65 
 58.86         63 
 58.88         78 
 58.9          78 
 58.92         68 
 58.94         70 
 58.96         78 
 58.98         78 
 59            81 
 59.02         77 
 59.04         75 
 59.06         84 
 59.08         76 
 59.1          74 
 59.12         67 
 59.14         92 
 59.16         82 
 59.18         110 
 59.2          116 
 59.22         120 
 59.24         146 
 59.26         134 
 59.28         144 
 59.3          145 
 59.32         166 
 59.34         179 
 59.36         169 
 59.38         179 
 59.4          158 
 59.42         151 
 59.44         142 
 59.46         148 
 59.48         150 
 59.5          119 
 59.52         115 
 59.54         107 
 59.56         107 
 59.58         102 
 59.6          117 
 59.62         95 
 59.64         108 
 59.66         106 
 59.68         105 
 59.7          126 
 59.72         134 
 59.74         162 
 59.76         152 
 59.78         184 
 59.8          196 
 59.82         193 
 59.84         217 
 59.86         220 
 59.88         217 
 59.9          209 
 59.92         200 
 59.94         190 
 59.96         179 
 59.98         181 
 60            204 
 60.02         202 
 60.04         199 
 60.06         208 
 60.08         199 
 60.1          179 
 60.12         187 
 60.14         159 
 60.16         189 
 60.18         173 
 60.2          170 
 60.22         170 
 60.24         174 
 60.26         165 
 60.28         158 
 60.3          153 
 60.32         177 
 60.34         114 
 60.36         159 
 60.38         138 
 60.4          139 
 60.42         139 
 60.44         134 
 60.46         124 
 60.48         128 
 60.5          110 
 60.52         122 
 60.54         141 
 60.56         115 
 60.58         99 
 60.6          131 
 60.62         126 
 60.64         102 
 60.66         113 
 60.68         111 
 60.7          95 
 60.72         86 
 60.74         101 
 60.76         89 
 60.78         90 
 60.8          97 
 60.82         81 
 60.84         84 
 60.86         81 
 60.88         84 
 60.9          94 
 60.92         86 
 60.94         81 
 60.96         96 
 60.98         86 
 61            90 
 61.02         91 
 61.04         86 
 61.06         98 
 61.08         96 
 61.1          95 
 61.12         95 
 61.14         102 
 61.16         102 
 61.18         96 
 61.2          88 
 61.22         94 
 61.24         79 
 61.26         98 
 61.28         88 
 61.3          113 
 61.32         95 
 61.34         119 
 61.36         99 
 61.38         87 
 61.4          118 
 61.42         95 
 61.44         120 
 61.46         121 
 61.48         113 
 61.5          120 
 61.52         120 
 61.54         131 
 61.56         123 
 61.58         151 
 61.6          150 
 61.62         185 
 61.64         197 
 61.66         201 
 61.68         214 
 61.7          218 
 61.72         208 
 61.74         241 
 61.76         229 
 61.78         225 
 61.8          228 
 61.82         207 
 61.84         202 
 61.86         220 
 61.88         216 
 61.9          199 
 61.92         219 
 61.94         216 
 61.96         191 
 61.98         157 
 62            195 
 62.02         172 
 62.04         183 
 62.06         187 
 62.08         178 
 62.1          175 
 62.12         192 
 62.14         181 
 62.16         188 
 62.18         155 
 62.2          180 
 62.22         161 
 62.24         159 
 62.26         158 
 62.28         141 
 62.3          137 
 62.32         154 
 62.34         125 
 62.36         143 
 62.38         127 
 62.4          142 
 62.42         115 
 62.44         118 
 62.46         112 
 62.48         91 
 62.5          108 
 62.52         90 
 62.54         85 
 62.56         93 
 62.58         94 
 62.6          95 
 62.62         83 
 62.64         79 
 62.66         67 
 62.68         100 
 62.7          87 
 62.72         84 
 62.74         77 
 62.76         91 
 62.78         99 
 62.8          84 
 62.82         96 
 62.84         118 
 62.86         116 
 62.88         108 
 62.9          120 
 62.92         115 
 62.94         112 
 62.96         96 
 62.98         97 
 63            107 
 63.02         96 
 63.04         96 
 63.06         79 
 63.08         78 
 63.1          87 
 63.12         94 
 63.14         97 
 63.16         75 
 63.18         84 
 63.2          72 
 63.22         80 
 63.24         75 
 63.26         103 
 63.28         106 
 63.3          105 
 63.32         99 
 63.34         89 
 63.36         142 
 63.38         175 
 63.4          182 
 63.42         189 
 63.44         239 
 63.46         237 
 63.48         285 
 63.5          278 
 63.52         272 
 63.54         316 
 63.56         295 
 63.58         265 
 63.6          235 
 63.62         276 
 63.64         274 
 63.66         272 
 63.68         252 
 63.7          257 
 63.72         242 
 63.74         188 
 63.76         273 
 63.78         216 
 63.8          233 
 63.82         232 
 63.84         231 
 63.86         250 
 63.88         225 
 63.9          211 
 63.92         197 
 63.94         204 
 63.96         221 
 63.98         231 
 64            215 
 64.02         234 
 64.04         202 
 64.06         202 
 64.08         208 
 64.1          212 
 64.12         199 
 64.14         173 
 64.16         201 
 64.18         186 
 64.2          190 
 64.22         177 
 64.24         182 
 64.26         190 
 64.28         162 
 64.3          157 
 64.32         151 
 64.34         134 
 64.36         120 
 64.38         130 
 64.4          133 
 64.42         130 
 64.44         114 
 64.46         112 
 64.48         122 
 64.5          129 
 64.52         113 
 64.54         120 
 64.56         106 
 64.58         97 
 64.6          100 
 64.62         101 
 64.64         88 
 64.66         77 
 64.68         84 
 64.7          90 
 64.72         78 
 64.74         87 
 64.76         88 
 64.78         79 
 64.8          91 
 64.82         87 
 64.84         68 
 64.86         82 
 64.88         76 
 64.9          91 
 64.92         72 
 64.94         86 
 64.96         84 
 64.98         89 
 65            112 
 65.02         100 
 65.04         106 
 65.06         101 
 65.08         119 
 65.1          117 
 65.12         124 
 65.14         114 
 65.16         114 
 65.18         103 
 65.2          97 
 65.22         107 
 65.24         101 
 65.26         121 
 65.28         91 
 65.3          90 
 65.32         106 
 65.34         92 
 65.36         113 
 65.38         85 
 65.4          99 
 65.42         81 
 65.44         99 
 65.46         100 
 65.48         112 
 65.5          87 
 65.52         104 
 65.54         98 
 65.56         103 
 65.58         124 
 65.6          115 
 65.62         124 
 65.64         133 
 65.66         143 
 65.68         155 
 65.7          185 
 65.72         175 
 65.74         190 
 65.76         202 
 65.78         197 
 65.8          195 
 65.82         200 
 65.84         241 
 65.86         213 
 65.88         194 
 65.9          210 
 65.92         194 
 65.94         224 
 65.96         194 
 65.98         171 
 66            173 
 66.02         194 
 66.04         160 
 66.06         147 
 66.08         151 
 66.1          118 
 66.12         135 
 66.14         149 
 66.16         137 
 66.18         141 
 66.2          123 
 66.22         98 
 66.24         113 
 66.26         107 
 66.28         115 
 66.3          135 
 66.32         106 
 66.34         145 
 66.36         102 
 66.38         110 
 66.4          92 
 66.42         104 
 66.44         91 
 66.46         94 
 66.48         85 
 66.5          71 
 66.52         76 
 66.54         63 
 66.56         70 
 66.58         55 
 66.6          76 
 66.62         65 
 66.64         63 
 66.66         68 
 66.68         58 
 66.7          67 
 66.72         70 
 66.74         66 
 66.76         61 
 66.78         69 
 66.8          60 
 66.82         65 
 66.84         62 
 66.86         64 
 66.88         66 
 66.9          86 
 66.92         63 
 66.94         65 
 66.96         55 
 66.98         80 
 67            61 
 67.02         64 
 67.04         80 
 67.06         79 
 67.08         69 
 67.1          58 
 67.12         94 
 67.14         93 
 67.16         91 
 67.18         95 
 67.2          107 
 67.22         122 
 67.24         122 
 67.26         165 
 67.28         155 
 67.3          188 
 67.32         215 
 67.34         198 
 67.36         194 
 67.38         253 
 67.4          257 
 67.42         251 
 67.44         255 
 67.46         244 
 67.48         264 
 67.5          250 
 67.52         235 
 67.54         247 
 67.56         215 
 67.58         185 
 67.6          186 
 67.62         176 
 67.64         161 
 67.66         150 
 67.68         170 
 67.7          130 
 67.72         115 
 67.74         111 
 67.76         127 
 67.78         119 
 67.8          123 
 67.82         103 
 67.84         129 
 67.86         137 
 67.88         145 
 67.9          143 
 67.92         170 
 67.94         181 
 67.96         168 
 67.98         225 
 68            203 
 68.02         236 
 68.04         194 
 68.06         245 
 68.08         219 
 68.1          211 
 68.12         211 
 68.14         194 
 68.16         182 
 68.18         180 
 68.2          165 
 68.22         169 
 68.24         159 
 68.26         143 
 68.28         169 
 68.3          135 
 68.32         127 
 68.34         123 
 68.36         95 
 68.38         111 
 68.4          109 
 68.42         100 
 68.44         89 
 68.46         93 
 68.48         94 
 68.5          84 
 68.52         104 
 68.54         88 
 68.56         82 
 68.58         77 
 68.6          84 
 68.62         94 
 68.64         78 
 68.66         77 
 68.68         76 
 68.7          81 
 68.72         72 
 68.74         73 
 68.76         62 
 68.78         79 
 68.8          73 
 68.82         80 
 68.84         74 
 68.86         77 
 68.88         91 
 68.9          75 
 68.92         91 
 68.94         101 
 68.96         103 
 68.98         107 
 69            134 
 69.02         128 
 69.04         135 
 69.06         144 
 69.08         124 
 69.1          131 
 69.12         121 
 69.14         120 
 69.16         127 
 69.18         114 
 69.2          117 
 69.22         106 
 69.24         114 
 69.26         118 
 69.28         120 
 69.3          90 
 69.32         93 
 69.34         112 
 69.36         93 
 69.38         58 
 69.4          75 
 69.42         83 
 69.44         82 
 69.46         53 
 69.48         67 
 69.5          70 
 69.52         70 
 69.54         54 
 69.56         71 
 69.58         80 
 69.6          79 
 69.62         71 
 69.64         55 
 69.66         39 
 69.68         61 
 69.7          70 
 69.72         66 
 69.74         74 
 69.76         76 
 69.78         59 
 69.8          62 
 69.82         74 
 69.84         76 
 69.86         72 
 69.88         63 
 69.9          56 
 69.92         62 
 69.94         69 
 69.96         67 
 69.98         63 
 70            59 
 70.02         58 
 70.04         63 
 70.06         62 
 70.08         69 
 70.1          58 
 70.12         67 
 70.14         73 
 70.16         52 
 70.18         72 
 70.2          61 
 70.22         61 
 70.24         59 
 70.26         57 
 70.28         65 
 70.3          54 
 70.32         56 
 70.34         68 
 70.36         58 
 70.38         63 
 70.4          67 
 70.42         60 
 70.44         62 
 70.46         53 
 70.48         64 
 70.5          71 
 70.52         76 
 70.54         59 
 70.56         50 
 70.58         61 
 70.6          54 
 70.62         63 
 70.64         61 
 70.66         51 
 70.68         60 
 70.7          64 
 70.72         77 
 70.74         53 
 70.76         54 
 70.78         60 
 70.8          60 
 70.82         60 
 70.84         52 
 70.86         55 
 70.88         48 
 70.9          63 
 70.92         70 
 70.94         69 
 70.96         62 
 70.98         80 
 71            89 
 71.02         104 
 71.04         81 
 71.06         98 
 71.08         114 
 71.1          110 
 71.12         124 
 71.14         146 
 71.16         160 
 71.18         158 
 71.2          170 
 71.22         187 
 71.24         188 
 71.26         186 
 71.28         206 
 71.3          210 
 71.32         196 
 71.34         227 
 71.36         237 
 71.38         245 
 71.4          230 
 71.42         252 
 71.44         256 
 71.46         239 
 71.48         240 
 71.5          248 
 71.52         231 
 71.54         230 
 71.56         252 
 71.58         226 
 71.6          256 
 71.62         254 
 71.64         216 
 71.66         213 
 71.68         197 
 71.7          212 
 71.72         216 
 71.74         183 
 71.76         199 
 71.78         205 
 71.8          194 
 71.82         191 
 71.84         199 
 71.86         198 
 71.88         209 
 71.9          203 
 71.92         179 
 71.94         166 
 71.96         172 
 71.98         181 
 72            168 
 72.02         142 
 72.04         159 
 72.06         178 
 72.08         157 
 72.1          149 
 72.12         147 
 72.14         155 
 72.16         138 
 72.18         122 
 72.2          122 
 72.22         116 
 72.24         130 
 72.26         123 
 72.28         110 
 72.3          120 
 72.32         140 
 72.34         111 
 72.36         107 
 72.38         93 
 72.4          116 
 72.42         113 
 72.44         123 
 72.46         102 
 72.48         98 
 72.5          119 
 72.52         107 
 72.54         109 
 72.56         102 
 72.58         114 
 72.6          90 
 72.62         101 
 72.64         102 
 72.66         101 
 72.68         97 
 72.7          83 
 72.72         82 
 72.74         71 
 72.76         92 
 72.78         76 
 72.8          79 
 72.82         74 
 72.84         64 
 72.86         71 
 72.88         78 
 72.9          70 
 72.92         73 
 72.94         64 
 72.96         60 
 72.98         71 
 73            75 
 73.02         61 
 73.04         73 
 73.06         68 
 73.08         68 
 73.1          72 
 73.12         70 
 73.14         75 
 73.16         62 
 73.18         91 
 73.2          56 
 73.22         80 
 73.24         73 
 73.26         89 
 73.28         90 
 73.3          102 
 73.32         94 
 73.34         100 
 73.36         110 
 73.38         103 
 73.4          106 
 73.42         116 
 73.44         98 
 73.46         112 
 73.48         113 
 73.5          100 
 73.52         121 
 73.54         100 
 73.56         101 
 73.58         92 
 73.6          88 
 73.62         93 
 73.64         101 
 73.66         105 
 73.68         83 
 73.7          91 
 73.72         90 
 73.74         75 
 73.76         83 
 73.78         80 
 73.8          85 
 73.82         59 
 73.84         75 
 73.86         50 
 73.88         68 
 73.9          75 
 73.92         68 
 73.93999      79 
 73.96         78 
 73.98         67 
 74            72 
 74.02         60 
 74.04         72 
 74.06         70 
 74.08         51 
 74.1          74 
 74.12         34 
 74.14         55 
 74.16         63 
 74.18         65 
 74.2          72 
 74.22         73 
 74.24         60 
 74.26         68 
 74.28         52 
 74.3          57 
 74.32         52 
 74.34         59 
 74.36         62 
 74.38         54 
 74.4          38 
 74.42         70 
 74.43999      69 
 74.46         62 
 74.48         71 
 74.5          68 
 74.52         45 
 74.54         56 
 74.56         39 
 74.58         53 
 74.6          59 
 74.62         77 
 74.64         68 
 74.66         80 
 74.68         69 
 74.7          69 
 74.72         72 
 74.74         83 
 74.76         75 
 74.78         64 
 74.8          70 
 74.82         105 
 74.84         95 
 74.86         107 
 74.88         126 
 74.9          101 
 74.92         116 
 74.93999      157 
 74.96         139 
 74.98         159 
 75            184 
