L432 LTOA 900°C Fast 15kN  Original Data
 3151 
 12            449 
 12.02         454 
 12.04         464 
 12.06         487 
 12.08         463 
 12.1          462 
 12.12         436 
 12.14         472 
 12.16         479 
 12.18         452 
 12.2          421 
 12.22         451 
 12.24         448 
 12.26         464 
 12.28         442 
 12.3          468 
 12.32         488 
 12.34         457 
 12.36         484 
 12.38         475 
 12.4          478 
 12.42         512 
 12.44         474 
 12.46         494 
 12.48         514 
 12.5          482 
 12.52         484 
 12.54         502 
 12.56         441 
 12.58         478 
 12.6          483 
 12.62         501 
 12.64         523 
 12.66         498 
 12.68         515 
 12.7          446 
 12.72         457 
 12.74         473 
 12.76         434 
 12.78         492 
 12.8          458 
 12.82         434 
 12.84         470 
 12.86         462 
 12.88         453 
 12.9          472 
 12.92         486 
 12.94         436 
 12.96         460 
 12.98         469 
 13            481 
 13.02         461 
 13.04         483 
 13.06         428 
 13.08         451 
 13.1          417 
 13.12         430 
 13.14         451 
 13.16         478 
 13.18         431 
 13.2          434 
 13.22         413 
 13.24         477 
 13.26         497 
 13.28         398 
 13.3          447 
 13.32         416 
 13.34         440 
 13.36         416 
 13.38         480 
 13.4          455 
 13.42         442 
 13.44         405 
 13.46         430 
 13.48         432 
 13.5          425 
 13.52         413 
 13.54         401 
 13.56         449 
 13.58         372 
 13.6          414 
 13.62         404 
 13.64         423 
 13.66         431 
 13.68         376 
 13.7          377 
 13.72         375 
 13.74         362 
 13.76         416 
 13.78         371 
 13.8          437 
 13.82         365 
 13.84         362 
 13.86         368 
 13.88         370 
 13.9          378 
 13.92         381 
 13.94         363 
 13.96         350 
 13.98         338 
 14            365 
 14.02         346 
 14.04         348 
 14.06         328 
 14.08         337 
 14.1          356 
 14.12         342 
 14.14         324 
 14.16         321 
 14.18         396 
 14.2          364 
 14.22         325 
 14.24         357 
 14.26         338 
 14.28         369 
 14.3          335 
 14.32         343 
 14.34         380 
 14.36         314 
 14.38         352 
 14.4          301 
 14.42         349 
 14.44         378 
 14.46         389 
 14.48         367 
 14.5          441 
 14.52         391 
 14.54         413 
 14.56         485 
 14.58         496 
 14.6          562 
 14.62         567 
 14.64         559 
 14.66         568 
 14.68         519 
 14.7          475 
 14.72         381 
 14.74         327 
 14.76         333 
 14.78         306 
 14.8          308 
 14.82         281 
 14.84         310 
 14.86         289 
 14.88         250 
 14.9          255 
 14.92         285 
 14.94         238 
 14.96         279 
 14.98         223 
 15            246 
 15.02         266 
 15.04         251 
 15.06         271 
 15.08         264 
 15.1          259 
 15.12         252 
 15.14         243 
 15.16         266 
 15.18         238 
 15.2          232 
 15.22         255 
 15.24         274 
 15.26         223 
 15.28         237 
 15.3          229 
 15.32         259 
 15.34         234 
 15.36         232 
 15.38         200 
 15.4          239 
 15.42         242 
 15.44         230 
 15.46         236 
 15.48         233 
 15.5          214 
 15.52         228 
 15.54         198 
 15.56         236 
 15.58         209 
 15.6          217 
 15.62         236 
 15.64         191 
 15.66         228 
 15.68         235 
 15.7          228 
 15.72         255 
 15.74         226 
 15.76         234 
 15.78         229 
 15.8          212 
 15.82         232 
 15.84         243 
 15.86         274 
 15.88         253 
 15.9          270 
 15.92         315 
 15.94         331 
 15.96         342 
 15.98         355 
 16            437 
 16.02         421 
 16.04         415 
 16.06         471 
 16.08         568 
 16.1          620 
 16.12         763 
 16.14         862 
 16.16         957 
 16.18         1013 
 16.2          1148 
 16.22         979 
 16.24         855 
 16.26         587 
 16.28         455 
 16.3          323 
 16.32         248 
 16.34         248 
 16.36         227 
 16.38         213 
 16.4          180 
 16.42         210 
 16.44         201 
 16.46         195 
 16.48         170 
 16.5          161 
 16.52         195 
 16.54         176 
 16.56         153 
 16.58         199 
 16.6          160 
 16.62         160 
 16.64         174 
 16.66         165 
 16.68         169 
 16.7          167 
 16.72         163 
 16.74         166 
 16.76         151 
 16.78         163 
 16.8          160 
 16.82         171 
 16.84         151 
 16.86         182 
 16.88         152 
 16.9          158 
 16.92         146 
 16.94         185 
 16.96         152 
 16.98         148 
 17            145 
 17.02         161 
 17.04         176 
 17.06         164 
 17.08         173 
 17.1          157 
 17.12         164 
 17.14         141 
 17.16         144 
 17.18         151 
 17.2          153 
 17.22         146 
 17.24         150 
 17.26         116 
 17.28         145 
 17.3          158 
 17.32         157 
 17.34         139 
 17.36         145 
 17.38         149 
 17.4          144 
 17.42         138 
 17.44         131 
 17.46         149 
 17.48         133 
 17.5          152 
 17.52         136 
 17.54         108 
 17.56         117 
 17.58         133 
 17.6          130 
 17.62         136 
 17.64         145 
 17.66         157 
 17.68         126 
 17.7          145 
 17.72         154 
 17.74         139 
 17.76         134 
 17.78         130 
 17.8          146 
 17.82         118 
 17.84         93 
 17.86         136 
 17.88         121 
 17.9          139 
 17.92         116 
 17.94         125 
 17.96         115 
 17.98         122 
 18            125 
 18.02         130 
 18.04         122 
 18.06         132 
 18.08         135 
 18.1          147 
 18.12         109 
 18.14         119 
 18.16         139 
 18.18         121 
 18.2          148 
 18.22         125 
 18.24         137 
 18.26         131 
 18.28         143 
 18.3          116 
 18.32         128 
 18.34         130 
 18.36         135 
 18.38         146 
 18.4          115 
 18.42         118 
 18.44         143 
 18.46         111 
 18.48         145 
 18.5          114 
 18.52         120 
 18.54         139 
 18.56         114 
 18.58         135 
 18.6          127 
 18.62         137 
 18.64         112 
 18.66         143 
 18.68         112 
 18.7          121 
 18.72         118 
 18.74         131 
 18.76         124 
 18.78         131 
 18.8          133 
 18.82         114 
 18.84         130 
 18.86         123 
 18.88         134 
 18.9          123 
 18.92         120 
 18.94         141 
 18.96         110 
 18.98         109 
 19            127 
 19.02         126 
 19.04         108 
 19.06         110 
 19.08         130 
 19.1          126 
 19.12         124 
 19.14         144 
 19.16         120 
 19.18         119 
 19.2          116 
 19.22         112 
 19.24         110 
 19.26         118 
 19.28         86 
 19.3          114 
 19.32         106 
 19.34         114 
 19.36         100 
 19.38         97 
 19.4          113 
 19.42         125 
 19.44         101 
 19.46         117 
 19.48         118 
 19.5          118 
 19.52         115 
 19.54         128 
 19.56         109 
 19.58         125 
 19.6          114 
 19.62         118 
 19.64         113 
 19.66         106 
 19.68         119 
 19.7          127 
 19.72         124 
 19.74         126 
 19.76         112 
 19.78         115 
 19.8          119 
 19.82         115 
 19.84         118 
 19.86         120 
 19.88         109 
 19.9          132 
 19.92         151 
 19.94         127 
 19.96         150 
 19.98         130 
 20            130 
 20.02         149 
 20.04         165 
 20.06         186 
 20.08         210 
 20.1          219 
 20.12         231 
 20.14         257 
 20.16         277 
 20.18         341 
 20.2          368 
 20.22         425 
 20.24         433 
 20.26         553 
 20.28         558 
 20.3          792 
 20.32         850 
 20.34         1006 
 20.36         1236 
 20.38         1434 
 20.4          1642 
 20.42         2004 
 20.44         2241 
 20.46         2455 
 20.48         2709 
 20.5          2756 
 20.52         3045 
 20.54         3160 
 20.56         3558 
 20.58         4070 
 20.6          4501 
 20.62         4886 
 20.64         4972 
 20.66         4600 
 20.68         3880 
 20.7          2882 
 20.72         2011 
 20.74         1252 
 20.76         843 
 20.78         505 
 20.8          403 
 20.82         291 
 20.84         259 
 20.86         246 
 20.88         200 
 20.9          195 
 20.92         184 
 20.94         172 
 20.96         171 
 20.98         143 
 21            154 
 21.02         136 
 21.04         152 
 21.06         140 
 21.08         156 
 21.1          134 
 21.12         157 
 21.14         164 
 21.16         159 
 21.18         156 
 21.2          163 
 21.22         168 
 21.24         189 
 21.26         198 
 21.28         183 
 21.3          220 
 21.32         229 
 21.34         230 
 21.36         293 
 21.38         308 
 21.4          304 
 21.42         325 
 21.44         360 
 21.46         362 
 21.48         343 
 21.5          298 
 21.52         344 
 21.54         321 
 21.56         298 
 21.58         330 
 21.6          374 
 21.62         410 
 21.64         481 
 21.66         526 
 21.68         569 
 21.7          626 
 21.72         728 
 21.74         708 
 21.76         736 
 21.78         625 
 21.8          510 
 21.82         400 
 21.84         336 
 21.86         231 
 21.88         175 
 21.9          152 
 21.92         141 
 21.94         141 
 21.96         142 
 21.98         127 
 22            123 
 22.02         128 
 22.04         107 
 22.06         97 
 22.08         107 
 22.1          98 
 22.12         108 
 22.14         112 
 22.16         112 
 22.18         118 
 22.2          100 
 22.22         113 
 22.24         99 
 22.26         121 
 22.28         101 
 22.3          113 
 22.32         98 
 22.34         114 
 22.36         103 
 22.38         117 
 22.4          121 
 22.42         116 
 22.44         114 
 22.46         101 
 22.48         124 
 22.5          133 
 22.52         140 
 22.54         114 
 22.56         157 
 22.58         148 
 22.6          160 
 22.62         199 
 22.64         194 
 22.66         205 
 22.68         239 
 22.7          278 
 22.72         302 
 22.74         377 
 22.76         429 
 22.78         455 
 22.8          624 
 22.82         682 
 22.84         872 
 22.86         1008 
 22.88         1328 
 22.9          1624 
 22.92         1875 
 22.94         2204 
 22.96         2269 
 22.98         2195 
 23            1969 
 23.02         1559 
 23.04         1239 
 23.06         788 
 23.08         577 
 23.1          406 
 23.12         289 
 23.14         247 
 23.16         193 
 23.18         194 
 23.2          173 
 23.22         149 
 23.24         138 
 23.26         137 
 23.28         138 
 23.3          133 
 23.32         129 
 23.34         140 
 23.36         119 
 23.38         117 
 23.4          118 
 23.42         109 
 23.44         113 
 23.46         113 
 23.48         135 
 23.5          114 
 23.52         126 
 23.54         112 
 23.56         151 
 23.58         111 
 23.6          128 
 23.62         138 
 23.64         169 
 23.66         193 
 23.68         173 
 23.7          221 
 23.72         205 
 23.74         239 
 23.76         278 
 23.78         309 
 23.8          340 
 23.82         424 
 23.84         434 
 23.86         570 
 23.88         665 
 23.9          784 
 23.92         957 
 23.94         1157 
 23.96         1473 
 23.98         1772 
 24            2331 
 24.02         2858 
 24.04         3645 
 24.06         4197 
 24.08         4539 
 24.1          4930 
 24.12         4948 
 24.14         4787 
 24.16         4153 
 24.18         3743 
 24.2          3207 
 24.22         2757 
 24.24         2644 
 24.26         2767 
 24.28         3081 
 24.3          3726 
 24.32         4487 
 24.34         5340 
 24.36         6062 
 24.38         6342 
 24.4          6346 
 24.42         5666 
 24.44         4595 
 24.46         3620 
 24.48         2320 
 24.5          1584 
 24.52         984 
 24.54         655 
 24.56         440 
 24.58         356 
 24.6          294 
 24.62         284 
 24.64         240 
 24.66         222 
 24.68         194 
 24.7          156 
 24.72         161 
 24.74         135 
 24.76         166 
 24.78         141 
 24.8          136 
 24.82         117 
 24.84         129 
 24.86         111 
 24.88         95 
 24.9          97 
 24.92         109 
 24.94         104 
 24.96         103 
 24.98         109 
 25            117 
 25.02         108 
 25.04         111 
 25.06         109 
 25.08         123 
 25.1          156 
 25.12         166 
 25.14         162 
 25.16         161 
 25.18         226 
 25.2          235 
 25.22         290 
 25.24         284 
 25.26         350 
 25.28         388 
 25.3          377 
 25.32         368 
 25.34         321 
 25.36         282 
 25.38         261 
 25.4          244 
 25.42         180 
 25.44         126 
 25.46         133 
 25.48         108 
 25.5          92 
 25.52         83 
 25.54         83 
 25.56         83 
 25.58         98 
 25.6          92 
 25.62         94 
 25.64         92 
 25.66         91 
 25.68         93 
 25.7          79 
 25.72         79 
 25.74         91 
 25.76         86 
 25.78         85 
 25.8          77 
 25.82         67 
 25.84         89 
 25.86         78 
 25.88         90 
 25.9          93 
 25.92         77 
 25.94         86 
 25.96         101 
 25.98         75 
 26            83 
 26.02         101 
 26.04         110 
 26.06         103 
 26.08         89 
 26.1          89 
 26.12         106 
 26.14         104 
 26.16         132 
 26.18         124 
 26.2          129 
 26.22         138 
 26.24         156 
 26.26         153 
 26.28         226 
 26.3          210 
 26.32         280 
 26.34         339 
 26.36         405 
 26.38         483 
 26.4          561 
 26.42         721 
 26.44         838 
 26.46         1044 
 26.48         1111 
 26.5          1136 
 26.52         1030 
 26.54         937 
 26.56         716 
 26.58         496 
 26.6          395 
 26.62         245 
 26.64         177 
 26.66         173 
 26.68         140 
 26.7          151 
 26.72         116 
 26.74         101 
 26.76         109 
 26.78         90 
 26.8          98 
 26.82         126 
 26.84         146 
 26.86         132 
 26.88         132 
 26.9          129 
 26.92         144 
 26.94         175 
 26.96         191 
 26.98         180 
 27            213 
 27.02         231 
 27.04         244 
 27.06         328 
 27.08         365 
 27.1          399 
 27.12         488 
 27.14         581 
 27.16         711 
 27.18         893 
 27.2          1139 
 27.22         1417 
 27.24         1877 
 27.26         2294 
 27.28         2849 
 27.3          3309 
 27.32         3463 
 27.34         3420 
 27.36         2960 
 27.38         2557 
 27.4          1809 
 27.42         1344 
 27.44         876 
 27.46         606 
 27.48         401 
 27.5          316 
 27.52         248 
 27.54         196 
 27.56         179 
 27.58         153 
 27.6          160 
 27.62         149 
 27.64         111 
 27.66         123 
 27.68         119 
 27.7          108 
 27.72         145 
 27.74         120 
 27.76         119 
 27.78         118 
 27.8          107 
 27.82         91 
 27.84         106 
 27.86         98 
 27.88         92 
 27.9          100 
 27.92         120 
 27.94         107 
 27.96         116 
 27.98         123 
 28            107 
 28.02         114 
 28.04         115 
 28.06         97 
 28.08         118 
 28.1          119 
 28.12         126 
 28.14         103 
 28.16         100 
 28.18         91 
 28.2          106 
 28.22         105 
 28.24         92 
 28.26         83 
 28.28         85 
 28.3          89 
 28.32         103 
 28.34         97 
 28.36         81 
 28.38         76 
 28.4          76 
 28.42         69 
 28.44         78 
 28.46         94 
 28.48         72 
 28.5          92 
 28.52         81 
 28.54         97 
 28.56         81 
 28.58         74 
 28.6          74 
 28.62         78 
 28.64         61 
 28.66         99 
 28.68         94 
 28.7          105 
 28.72         110 
 28.74         97 
 28.76         104 
 28.78         109 
 28.8          133 
 28.82         156 
 28.84         126 
 28.86         153 
 28.88         181 
 28.9          204 
 28.92         263 
 28.94         299 
 28.96         348 
 28.98         417 
 29            534 
 29.02         668 
 29.04         837 
 29.06         1041 
 29.08         1442 
 29.1          1602 
 29.12         1853 
 29.14         2092 
 29.16         2038 
 29.18         1896 
 29.2          1552 
 29.22         1281 
 29.24         996 
 29.26         704 
 29.28         488 
 29.3          407 
 29.32         284 
 29.34         279 
 29.36         272 
 29.38         273 
 29.4          278 
 29.42         304 
 29.44         437 
 29.46         464 
 29.48         639 
 29.5          739 
 29.52         950 
 29.54         1104 
 29.56         1199 
 29.58         1365 
 29.6          1443 
 29.62         1401 
 29.64         1208 
 29.66         990 
 29.68         763 
 29.7          628 
 29.72         410 
 29.74         308 
 29.76         233 
 29.78         164 
 29.8          152 
 29.82         148 
 29.84         155 
 29.86         151 
 29.88         182 
 29.9          205 
 29.92         204 
 29.94         198 
 29.96         244 
 29.98         315 
 30            400 
 30.02         453 
 30.04         540 
 30.06         652 
 30.08         686 
 30.1          747 
 30.12         680 
 30.14         592 
 30.16         524 
 30.18         447 
 30.2          335 
 30.22         287 
 30.24         200 
 30.26         194 
 30.28         165 
 30.3          149 
 30.32         131 
 30.34         134 
 30.36         110 
 30.38         105 
 30.4          96 
 30.42         90 
 30.44         95 
 30.46         70 
 30.48         67 
 30.5          79 
 30.52         73 
 30.54         88 
 30.56         73 
 30.58         78 
 30.6          92 
 30.62         99 
 30.64         94 
 30.66         71 
 30.68         70 
 30.7          79 
 30.72         80 
 30.74         81 
 30.76         75 
 30.78         84 
 30.8          82 
 30.82         88 
 30.84         82 
 30.86         93 
 30.88         83 
 30.9          64 
 30.92         83 
 30.94         80 
 30.96         87 
 30.98         73 
 31            70 
 31.02         72 
 31.04         83 
 31.06         75 
 31.08         75 
 31.1          82 
 31.12         78 
 31.14         80 
 31.16         106 
 31.18         79 
 31.2          74 
 31.22         77 
 31.24         66 
 31.26         80 
 31.28         72 
 31.3          78 
 31.32         78 
 31.34         85 
 31.36         63 
 31.38         89 
 31.4          74 
 31.42         72 
 31.44         74 
 31.46         75 
 31.48         73 
 31.5          84 
 31.52         83 
 31.54         113 
 31.56         95 
 31.58         97 
 31.6          102 
 31.62         85 
 31.64         110 
 31.66         127 
 31.68         142 
 31.7          154 
 31.72         192 
 31.74         214 
 31.76         231 
 31.78         236 
 31.8          374 
 31.82         457 
 31.84         510 
 31.86         669 
 31.88         747 
 31.9          874 
 31.92         924 
 31.94         965 
 31.96         914 
 31.98         959 
 32            972 
 32.02         1027 
 32.04         1085 
 32.06         1018 
 32.08         900 
 32.1          834 
 32.12         737 
 32.14         618 
 32.16         513 
 32.18         397 
 32.2          325 
 32.22         192 
 32.24         159 
 32.26         156 
 32.28         132 
 32.3          101 
 32.32         114 
 32.34         109 
 32.36         83 
 32.38         99 
 32.4          84 
 32.42         79 
 32.44         101 
 32.46         105 
 32.48         106 
 32.5          102 
 32.52         84 
 32.54         128 
 32.56         138 
 32.58         139 
 32.6          131 
 32.62         163 
 32.64         204 
 32.66         261 
 32.68         321 
 32.7          398 
 32.72         532 
 32.74         578 
 32.76         639 
 32.78         691 
 32.8          746 
 32.82         665 
 32.84         667 
 32.86         507 
 32.88         478 
 32.9          449 
 32.92         401 
 32.94         384 
 32.96         446 
 32.98         467 
 33            597 
 33.02         734 
 33.04         910 
 33.06         1008 
 33.08         1158 
 33.1          1164 
 33.12         1107 
 33.14         956 
 33.16         816 
 33.18         721 
 33.2          530 
 33.22         468 
 33.24         374 
 33.26         278 
 33.28         271 
 33.3          281 
 33.32         311 
 33.34         375 
 33.36         460 
 33.38         585 
 33.4          782 
 33.42         959 
 33.44         1189 
 33.46         1326 
 33.48         1456 
 33.5          1504 
 33.52         1392 
 33.54         1271 
 33.56         1084 
 33.58         829 
 33.6          736 
 33.62         524 
 33.64         350 
 33.66         299 
 33.68         241 
 33.7          164 
 33.72         138 
 33.74         135 
 33.76         97 
 33.78         113 
 33.8          87 
 33.82         99 
 33.84         65 
 33.86         83 
 33.88         69 
 33.9          65 
 33.92         62 
 33.94         66 
 33.96         62 
 33.98         65 
 34            71 
 34.02         57 
 34.04         65 
 34.06         65 
 34.08         69 
 34.1          80 
 34.12         66 
 34.14         69 
 34.16         73 
 34.18         72 
 34.2          60 
 34.22         58 
 34.24         52 
 34.26         48 
 34.28         65 
 34.3          49 
 34.32         64 
 34.34         42 
 34.36         53 
 34.38         61 
 34.4          53 
 34.42         68 
 34.44         73 
 34.46         55 
 34.48         54 
 34.5          61 
 34.52         70 
 34.54         63 
 34.56         67 
 34.58         65 
 34.6          64 
 34.62         63 
 34.64         79 
 34.66         72 
 34.68         57 
 34.7          63 
 34.72         64 
 34.74         63 
 34.76         61 
 34.78         62 
 34.8          50 
 34.82         64 
 34.84         74 
 34.86         54 
 34.88         71 
 34.9          50 
 34.92         66 
 34.94         47 
 34.96         65 
 34.98         80 
 35            66 
 35.02         78 
 35.04         61 
 35.06         71 
 35.08         76 
 35.1          71 
 35.12         68 
 35.14         53 
 35.16         65 
 35.18         71 
 35.2          62 
 35.22         80 
 35.24         84 
 35.26         80 
 35.28         83 
 35.3          80 
 35.32         86 
 35.34         83 
 35.36         81 
 35.38         78 
 35.4          93 
 35.42         99 
 35.44         77 
 35.46         79 
 35.48         94 
 35.5          92 
 35.52         99 
 35.54         99 
 35.56         87 
 35.58         82 
 35.6          100 
 35.62         95 
 35.64         106 
 35.66         107 
 35.68         118 
 35.7          134 
 35.72         148 
 35.74         151 
 35.76         165 
 35.78         148 
 35.8          178 
 35.82         193 
 35.84         257 
 35.86         321 
 35.88         385 
 35.9          475 
 35.92         537 
 35.94         780 
 35.96         917 
 35.98         1052 
 36            1214 
 36.02         1412 
 36.04         1505 
 36.06         1461 
 36.08         1443 
 36.1          1298 
 36.12         1102 
 36.14         1030 
 36.16         991 
 36.18         870 
 36.2          869 
 36.22         943 
 36.24         944 
 36.26         1004 
 36.28         1090 
 36.3          1090 
 36.32         940 
 36.34         815 
 36.36         726 
 36.38         591 
 36.4          470 
 36.42         366 
 36.44         302 
 36.46         208 
 36.48         155 
 36.5          132 
 36.52         120 
 36.54         99 
 36.56         77 
 36.58         90 
 36.6          70 
 36.62         71 
 36.64         67 
 36.66         60 
 36.68         74 
 36.7          67 
 36.72         57 
 36.74         76 
 36.76         59 
 36.78         50 
 36.8          80 
 36.82         77 
 36.84         82 
 36.86         73 
 36.88         57 
 36.9          63 
 36.92         51 
 36.94         52 
 36.96         80 
 36.98         67 
 37            46 
 37.02         53 
 37.04         52 
 37.06         55 
 37.08         60 
 37.1          61 
 37.12         43 
 37.14         54 
 37.16         43 
 37.18         59 
 37.2          58 
 37.22         57 
 37.24         60 
 37.26         56 
 37.28         59 
 37.3          56 
 37.32         68 
 37.34         73 
 37.36         55 
 37.38         74 
 37.4          57 
 37.42         76 
 37.44         63 
 37.46         57 
 37.48         55 
 37.5          68 
 37.52         70 
 37.54         58 
 37.56         65 
 37.58         73 
 37.6          74 
 37.62         68 
 37.64         68 
 37.66         87 
 37.68         88 
 37.7          112 
 37.72         158 
 37.74         154 
 37.76         152 
 37.78         176 
 37.8          169 
 37.82         160 
 37.84         138 
 37.86         127 
 37.88         140 
 37.9          117 
 37.92         86 
 37.94         82 
 37.96         55 
 37.98         69 
 38            57 
 38.02         72 
 38.04         47 
 38.06         63 
 38.08         62 
 38.1          46 
 38.12         51 
 38.14         72 
 38.16         66 
 38.18         56 
 38.2          49 
 38.22         59 
 38.24         56 
 38.26         68 
 38.28         59 
 38.3          49 
 38.32         73 
 38.34         70 
 38.36         76 
 38.38         93 
 38.4          73 
 38.42         81 
 38.44         70 
 38.46         89 
 38.48         92 
 38.5          87 
 38.52         79 
 38.54         72 
 38.56         84 
 38.58         100 
 38.6          110 
 38.62         145 
 38.64         160 
 38.66         200 
 38.68         222 
 38.7          226 
 38.72         294 
 38.74         287 
 38.76         247 
 38.78         272 
 38.8          217 
 38.82         164 
 38.84         159 
 38.86         128 
 38.88         100 
 38.9          101 
 38.92         80 
 38.94         67 
 38.96         70 
 38.98         57 
 39            53 
 39.02         67 
 39.04         72 
 39.06         64 
 39.08         47 
 39.1          74 
 39.12         56 
 39.14         49 
 39.16         56 
 39.18         60 
 39.2          53 
 39.22         63 
 39.24         60 
 39.26         40 
 39.28         59 
 39.3          54 
 39.32         55 
 39.34         57 
 39.36         47 
 39.38         45 
 39.4          50 
 39.42         50 
 39.44         48 
 39.46         54 
 39.48         60 
 39.5          72 
 39.52         50 
 39.54         64 
 39.56         52 
 39.58         70 
 39.6          63 
 39.62         67 
 39.64         57 
 39.66         78 
 39.68         61 
 39.7          95 
 39.72         92 
 39.74         91 
 39.76         112 
 39.78         105 
 39.8          133 
 39.82         150 
 39.84         168 
 39.86         164 
 39.88         156 
 39.9          162 
 39.92         119 
 39.94         132 
 39.96         116 
 39.98         103 
 40            89 
 40.02         78 
 40.04         68 
 40.06         75 
 40.08         73 
 40.1          58 
 40.12         71 
 40.14         60 
 40.16         73 
 40.18         70 
 40.2          61 
 40.22         75 
 40.24         76 
 40.26         74 
 40.28         90 
 40.3          96 
 40.32         102 
 40.34         123 
 40.36         130 
 40.38         146 
 40.4          163 
 40.42         187 
 40.44         130 
 40.46         132 
 40.48         128 
 40.5          119 
 40.52         104 
 40.54         84 
 40.56         73 
 40.58         68 
 40.6          71 
 40.62         64 
 40.64         57 
 40.66         61 
 40.68         73 
 40.7          51 
 40.72         74 
 40.74         44 
 40.76         62 
 40.78         60 
 40.8          61 
 40.82         61 
 40.84         54 
 40.86         52 
 40.88         47 
 40.9          63 
 40.92         62 
 40.94         58 
 40.96         64 
 40.98         56 
 41            55 
 41.02         48 
 41.04         61 
 41.06         66 
 41.08         48 
 41.1          52 
 41.12         64 
 41.14         58 
 41.16         50 
 41.18         53 
 41.2          48 
 41.22         56 
 41.24         51 
 41.26         55 
 41.28         50 
 41.3          56 
 41.32         61 
 41.34         55 
 41.36         54 
 41.38         54 
 41.4          51 
 41.42         64 
 41.44         57 
 41.46         49 
 41.48         41 
 41.5          59 
 41.52         57 
 41.54         71 
 41.56         70 
 41.58         75 
 41.6          55 
 41.62         84 
 41.64         74 
 41.66         61 
 41.68         76 
 41.7          84 
 41.72         73 
 41.74         72 
 41.76         81 
 41.78         81 
 41.8          74 
 41.82         82 
 41.84         74 
 41.86         77 
 41.88         83 
 41.9          88 
 41.92         61 
 41.94         80 
 41.96         73 
 41.98         96 
 42            98 
 42.02         89 
 42.04         112 
 42.06         88 
 42.08         90 
 42.1          85 
 42.12         99 
 42.14         106 
 42.16         80 
 42.18         69 
 42.2          72 
 42.22         65 
 42.24         62 
 42.26         73 
 42.28         63 
 42.3          51 
 42.32         59 
 42.34         59 
 42.36         52 
 42.38         60 
 42.4          62 
 42.42         53 
 42.44         79 
 42.46         61 
 42.48         54 
 42.5          61 
 42.52         68 
 42.54         59 
 42.56         79 
 42.58         60 
 42.6          64 
 42.62         83 
 42.64         75 
 42.66         81 
 42.68         83 
 42.7          77 
 42.72         95 
 42.74         87 
 42.76         146 
 42.78         150 
 42.8          178 
 42.82         223 
 42.84         280 
 42.86         284 
 42.88         305 
 42.9          307 
 42.92         260 
 42.94         257 
 42.96         220 
 42.98         212 
 43            186 
 43.02         165 
 43.04         150 
 43.06         127 
 43.08         105 
 43.1          133 
 43.12         144 
 43.14         139 
 43.16         135 
 43.18         111 
 43.2          134 
 43.22         113 
 43.24         85 
 43.26         97 
 43.28         101 
 43.3          73 
 43.32         73 
 43.34         71 
 43.36         70 
 43.38         85 
 43.4          74 
 43.42         75 
 43.44         72 
 43.46         57 
 43.48         75 
 43.5          74 
 43.52         85 
 43.54         91 
 43.56         116 
 43.58         117 
 43.6          114 
 43.62         162 
 43.64         171 
 43.66         176 
 43.68         176 
 43.7          203 
 43.72         252 
 43.74         253 
 43.76         322 
 43.78         401 
 43.8          504 
 43.82         577 
 43.84         634 
 43.86         648 
 43.88         633 
 43.9          622 
 43.92         571 
 43.94         525 
 43.96         421 
 43.98         409 
 44            357 
 44.02         271 
 44.04         253 
 44.06         188 
 44.08         181 
 44.1          181 
 44.12         179 
 44.14         178 
 44.16         229 
 44.18         246 
 44.2          260 
 44.22         251 
 44.24         263 
 44.26         234 
 44.28         250 
 44.3          200 
 44.32         179 
 44.34         167 
 44.36         189 
 44.38         150 
 44.4          161 
 44.42         141 
 44.44         127 
 44.46         129 
 44.48         127 
 44.5          139 
 44.52         139 
 44.54         132 
 44.56         124 
 44.58         114 
 44.6          117 
 44.62         101 
 44.64         110 
 44.66         104 
 44.68         89 
 44.7          116 
 44.72         65 
 44.74         83 
 44.76         74 
 44.78         71 
 44.8          75 
 44.82         56 
 44.84         54 
 44.86         47 
 44.88         50 
 44.9          70 
 44.92         67 
 44.94         57 
 44.96         58 
 44.98         71 
 45            65 
 45.02         69 
 45.04         63 
 45.06         70 
 45.08         75 
 45.1          82 
 45.12         78 
 45.14         61 
 45.16         67 
 45.18         62 
 45.2          51 
 45.22         42 
 45.24         64 
 45.26         56 
 45.28         64 
 45.3          53 
 45.32         66 
 45.34         55 
 45.36         66 
 45.38         60 
 45.4          58 
 45.42         68 
 45.44         74 
 45.46         68 
 45.48         71 
 45.5          74 
 45.52         98 
 45.54         91 
 45.56         93 
 45.58         137 
 45.6          166 
 45.62         223 
 45.64         218 
 45.66         249 
 45.68         234 
 45.7          226 
 45.72         212 
 45.74         185 
 45.76         167 
 45.78         174 
 45.8          138 
 45.82         123 
 45.84         114 
 45.86         99 
 45.88         87 
 45.9          102 
 45.92         72 
 45.94         59 
 45.96         66 
 45.98         50 
 46            51 
 46.02         58 
 46.04         68 
 46.06         63 
 46.08         66 
 46.1          59 
 46.12         56 
 46.14         52 
 46.16         43 
 46.18         62 
 46.2          51 
 46.22         58 
 46.24         49 
 46.26         75 
 46.28         56 
 46.3          61 
 46.32         64 
 46.34         66 
 46.36         65 
 46.38         74 
 46.4          70 
 46.42         93 
 46.44         66 
 46.46         71 
 46.48         88 
 46.5          74 
 46.52         79 
 46.54         78 
 46.56         78 
 46.58         84 
 46.6          86 
 46.62         95 
 46.64         111 
 46.66         101 
 46.68         102 
 46.7          123 
 46.72         158 
 46.74         204 
 46.76         254 
 46.78         302 
 46.8          359 
 46.82         418 
 46.84         484 
 46.86         517 
 46.88         635 
 46.9          627 
 46.92         723 
 46.94         830 
 46.96         841 
 46.98         875 
 47            864 
 47.02         801 
 47.04         678 
 47.06         647 
 47.08         562 
 47.1          450 
 47.12         440 
 47.14         362 
 47.16         322 
 47.18         224 
 47.2          220 
 47.22         179 
 47.24         199 
 47.26         176 
 47.28         150 
 47.3          150 
 47.32         172 
 47.34         184 
 47.36         220 
 47.38         283 
 47.4          353 
 47.42         433 
 47.44         522 
 47.46         675 
 47.48         765 
 47.5          946 
 47.52         1146 
 47.54         1222 
 47.56         1406 
 47.58         1552 
 47.6          1687 
 47.62         1555 
 47.64         1456 
 47.66         1333 
 47.68         1112 
 47.7          1018 
 47.72         990 
 47.74         819 
 47.76         647 
 47.78         535 
 47.8          425 
 47.82         325 
 47.84         284 
 47.86         261 
 47.88         280 
 47.9          326 
 47.92         364 
 47.94         466 
 47.96         488 
 47.98         485 
 48            535 
 48.02         533 
 48.04         481 
 48.06         429 
 48.08         417 
 48.1          382 
 48.12         361 
 48.14         278 
 48.16         258 
 48.18         230 
 48.2          179 
 48.22         143 
 48.24         104 
 48.26         120 
 48.28         114 
 48.3          124 
 48.32         77 
 48.34         107 
 48.36         107 
 48.38         131 
 48.4          125 
 48.42         126 
 48.44         136 
 48.46         127 
 48.48         127 
 48.5          127 
 48.52         119 
 48.54         133 
 48.56         92 
 48.58         119 
 48.6          95 
 48.62         86 
 48.64         88 
 48.66         82 
 48.68         78 
 48.7          67 
 48.72         67 
 48.74         65 
 48.76         70 
 48.78         79 
 48.8          92 
 48.82         78 
 48.84         75 
 48.86         92 
 48.88         105 
 48.9          102 
 48.92         96 
 48.94         109 
 48.96         107 
 48.98         122 
 49            110 
 49.02         132 
 49.04         106 
 49.06         110 
 49.08         131 
 49.1          147 
 49.12         158 
 49.14         187 
 49.16         205 
 49.18         235 
 49.2          287 
 49.22         333 
 49.24         362 
 49.26         391 
 49.28         374 
 49.3          393 
 49.32         373 
 49.34         390 
 49.36         358 
 49.38         318 
 49.4          311 
 49.42         262 
 49.44         257 
 49.46         211 
 49.48         183 
 49.5          153 
 49.52         146 
 49.54         119 
 49.56         123 
 49.58         92 
 49.6          77 
 49.62         93 
 49.64         73 
 49.66         86 
 49.68         78 
 49.7          82 
 49.72         94 
 49.74         105 
 49.76         75 
 49.78         117 
 49.8          132 
 49.82         130 
 49.84         138 
 49.86         181 
 49.88         201 
 49.9          258 
 49.92         303 
 49.94         381 
 49.96         468 
 49.98         453 
 50            559 
 50.02         540 
 50.04         589 
 50.06         500 
 50.08         497 
 50.1          472 
 50.12         433 
 50.14         419 
 50.16         377 
 50.18         355 
 50.2          316 
 50.22         235 
 50.24         244 
 50.26         257 
 50.28         224 
 50.3          275 
 50.32         287 
 50.34         303 
 50.36         344 
 50.38         332 
 50.4          306 
 50.42         294 
 50.44         279 
 50.46         217 
 50.48         248 
 50.5          211 
 50.52         200 
 50.54         161 
 50.56         117 
 50.58         99 
 50.6          76 
 50.62         101 
 50.64         77 
 50.66         70 
 50.68         77 
 50.7          57 
 50.72         72 
 50.74         53 
 50.76         58 
 50.78         71 
 50.8          49 
 50.82         70 
 50.84         53 
 50.86         62 
 50.88         74 
 50.9          59 
 50.92         60 
 50.94         63 
 50.96         62 
 50.98         73 
 51            85 
 51.02         88 
 51.04         104 
 51.06         117 
 51.08         137 
 51.1          169 
 51.12         190 
 51.14         240 
 51.16         236 
 51.18         270 
 51.2          268 
 51.22         263 
 51.24         242 
 51.26         257 
 51.28         205 
 51.3          210 
 51.32         183 
 51.34         188 
 51.36         145 
 51.38         137 
 51.4          98 
 51.42         85 
 51.44         90 
 51.46         76 
 51.48         58 
 51.5          54 
 51.52         69 
 51.54         66 
 51.56         55 
 51.58         62 
 51.6          59 
 51.62         58 
 51.64         66 
 51.66         49 
 51.68         58 
 51.7          56 
 51.72         51 
 51.74         63 
 51.76         70 
 51.78         77 
 51.8          87 
 51.82         89 
 51.84         127 
 51.86         141 
 51.88         183 
 51.9          205 
 51.92         204 
 51.94         190 
 51.96         196 
 51.98         170 
 52            181 
 52.02         163 
 52.04         167 
 52.06         182 
 52.08         156 
 52.1          153 
 52.12         144 
 52.14         127 
 52.16         124 
 52.18         116 
 52.2          110 
 52.22         110 
 52.24         141 
 52.26         140 
 52.28         178 
 52.3          224 
 52.32         223 
 52.34         342 
 52.36         374 
 52.38         420 
 52.4          444 
 52.42         522 
 52.44         544 
 52.46         543 
 52.48         608 
 52.5          573 
 52.52         567 
 52.54         501 
 52.56         515 
 52.58         440 
 52.6          360 
 52.62         348 
 52.64         293 
 52.66         239 
 52.68         218 
 52.7          184 
 52.72         148 
 52.74         149 
 52.76         113 
 52.78         103 
 52.8          92 
 52.82         90 
 52.84         83 
 52.86         97 
 52.88         91 
 52.9          75 
 52.92         85 
 52.94         77 
 52.96         87 
 52.98         81 
 53            82 
 53.02         76 
 53.04         90 
 53.06         95 
 53.08         98 
 53.1          103 
 53.12         94 
 53.14         98 
 53.16         100 
 53.18         125 
 53.2          102 
 53.22         112 
 53.24         116 
 53.26         112 
 53.28         123 
 53.3          102 
 53.32         98 
 53.34         128 
 53.36         116 
 53.38         141 
 53.4          152 
 53.42         180 
 53.44         155 
 53.46         191 
 53.48         145 
 53.5          153 
 53.52         158 
 53.54         162 
 53.56         134 
 53.58         151 
 53.6          127 
 53.62         128 
 53.64         99 
 53.66         117 
 53.68         75 
 53.7          88 
 53.72         96 
 53.74         80 
 53.76         79 
 53.78         85 
 53.8          96 
 53.82         89 
 53.84         97 
 53.86         102 
 53.88         97 
 53.9          105 
 53.92         93 
 53.94         104 
 53.96         96 
 53.98         99 
 54            98 
 54.02         101 
 54.04         100 
 54.06         103 
 54.08         123 
 54.1          124 
 54.12         147 
 54.14         168 
 54.16         178 
 54.18         252 
 54.2          260 
 54.22         344 
 54.24         396 
 54.26         422 
 54.28         377 
 54.3          437 
 54.32         368 
 54.34         394 
 54.36         372 
 54.38         434 
 54.4          417 
 54.42         465 
 54.44         500 
 54.46         495 
 54.48         439 
 54.5          462 
 54.52         400 
 54.54         399 
 54.56         405 
 54.58         425 
 54.6          382 
 54.62         419 
 54.64         309 
 54.66         312 
 54.68         242 
 54.7          230 
 54.72         207 
 54.74         175 
 54.76         159 
 54.78         161 
 54.8          120 
 54.82         114 
 54.84         103 
 54.86         97 
 54.88         86 
 54.9          78 
 54.92         90 
 54.94         86 
 54.96         91 
 54.98         77 
 55            101 
 55.02         100 
 55.04         114 
 55.06         128 
 55.08         146 
 55.1          195 
 55.12         223 
 55.14         253 
 55.16         262 
 55.18         297 
 55.2          277 
 55.22         276 
 55.24         295 
 55.26         261 
 55.28         237 
 55.3          239 
 55.32         215 
 55.34         227 
 55.36         206 
 55.38         188 
 55.4          181 
 55.42         168 
 55.44         124 
 55.46         113 
 55.48         88 
 55.5          101 
 55.52         107 
 55.54         97 
 55.56         90 
 55.58         54 
 55.6          71 
 55.62         83 
 55.64         78 
 55.66         70 
 55.68         73 
 55.7          70 
 55.72         70 
 55.74         93 
 55.76         89 
 55.78         58 
 55.8          69 
 55.82         70 
 55.84         59 
 55.86         67 
 55.88         82 
 55.9          83 
 55.92         89 
 55.94         87 
 55.96         85 
 55.98         87 
 56            89 
 56.02         124 
 56.04         134 
 56.06         153 
 56.08         158 
 56.1          208 
 56.12         213 
 56.14         255 
 56.16         306 
 56.18         293 
 56.2          287 
 56.22         353 
 56.24         388 
 56.26         411 
 56.28         455 
 56.3          620 
 56.32         625 
 56.34         787 
 56.36         843 
 56.38         993 
 56.4          982 
 56.42         957 
 56.44         1029 
 56.46         1069 
 56.48         1002 
 56.5          1058 
 56.52         1005 
 56.54         936 
 56.56         907 
 56.58         837 
 56.6          740 
 56.62         698 
 56.64         632 
 56.66         641 
 56.68         688 
 56.7          718 
 56.72         798 
 56.74         858 
 56.76         943 
 56.78         943 
 56.8          924 
 56.82         936 
 56.84         869 
 56.86         843 
 56.88         763 
 56.9          729 
 56.92         644 
 56.94         559 
 56.96         526 
 56.98         499 
 57            424 
 57.02         336 
 57.04         272 
 57.06         246 
 57.08         190 
 57.1          176 
 57.12         131 
 57.14         137 
 57.16         116 
 57.18         96 
 57.2          107 
 57.22         105 
 57.24         126 
 57.26         96 
 57.28         102 
 57.3          95 
 57.32         103 
 57.34         102 
 57.36         117 
 57.38         97 
 57.4          105 
 57.42         122 
 57.44         130 
 57.46         154 
 57.48         167 
 57.5          177 
 57.52         198 
 57.54         204 
 57.56         189 
 57.58         230 
 57.6          179 
 57.62         177 
 57.64         163 
 57.66         138 
 57.68         165 
 57.7          132 
 57.72         144 
 57.74         118 
 57.76         121 
 57.78         105 
 57.8          81 
 57.82         92 
 57.84         69 
 57.86         81 
 57.88         81 
 57.9          79 
 57.92         68 
 57.94         73 
 57.96         54 
 57.98         77 
 58            86 
 58.02         88 
 58.04         92 
 58.06         107 
 58.08         113 
 58.1          94 
 58.12         117 
 58.14         95 
 58.16         121 
 58.18         125 
 58.2          109 
 58.22         119 
 58.24         132 
 58.26         122 
 58.28         119 
 58.3          113 
 58.32         105 
 58.34         108 
 58.36         122 
 58.38         102 
 58.4          101 
 58.42         79 
 58.44         73 
 58.46         84 
 58.48         72 
 58.5          101 
 58.52         67 
 58.54         63 
 58.56         76 
 58.58         80 
 58.6          97 
 58.62         82 
 58.64         90 
 58.66         89 
 58.68         79 
 58.7          79 
 58.72         76 
 58.74         75 
 58.76         88 
 58.78         72 
 58.8          73 
 58.82         79 
 58.84         74 
 58.86         74 
 58.88         93 
 58.9          83 
 58.92         96 
 58.94         86 
 58.96         93 
 58.98         98 
 59            76 
 59.02         81 
 59.04         79 
 59.06         94 
 59.08         72 
 59.1          72 
 59.12         93 
 59.14         84 
 59.16         99 
 59.18         102 
 59.2          118 
 59.22         117 
 59.24         132 
 59.26         162 
 59.28         152 
 59.3          185 
 59.32         169 
 59.34         172 
 59.36         170 
 59.38         166 
 59.4          156 
 59.42         179 
 59.44         162 
 59.46         159 
 59.48         206 
 59.5          204 
 59.52         223 
 59.54         200 
 59.56         248 
 59.58         238 
 59.6          224 
 59.62         210 
 59.64         194 
 59.66         190 
 59.68         165 
 59.7          152 
 59.72         154 
 59.74         134 
 59.76         128 
 59.78         132 
 59.8          95 
 59.82         94 
 59.84         82 
 59.86         79 
 59.88         52 
 59.9          74 
 59.92         54 
 59.94         63 
 59.96         69 
 59.98         57 
 60            62 
 60.02         59 
 60.04         74 
 60.06         70 
 60.08         68 
 60.1          54 
 60.12         73 
 60.14         61 
 60.16         59 
 60.18         69 
 60.2          67 
 60.22         69 
 60.24         57 
 60.26         73 
 60.28         73 
 60.3          86 
 60.32         93 
 60.34         102 
 60.36         103 
 60.38         112 
 60.4          141 
 60.42         167 
 60.44         191 
 60.46         189 
 60.48         206 
 60.5          221 
 60.52         173 
 60.54         175 
 60.56         148 
 60.58         152 
 60.6          143 
 60.62         153 
 60.64         160 
 60.66         137 
 60.68         127 
 60.7          116 
 60.72         95 
 60.74         101 
 60.76         85 
 60.78         91 
 60.8          69 
 60.82         76 
 60.84         69 
 60.86         62 
 60.88         83 
 60.9          105 
 60.92         103 
 60.94         113 
 60.96         132 
 60.98         135 
 61            165 
 61.02         130 
 61.04         161 
 61.06         151 
 61.08         124 
 61.1          136 
 61.12         139 
 61.14         138 
 61.16         122 
 61.18         126 
 61.2          120 
 61.22         104 
 61.24         124 
 61.26         111 
 61.28         115 
 61.3          112 
 61.32         97 
 61.34         108 
 61.36         128 
 61.38         150 
 61.4          145 
 61.42         140 
 61.44         143 
 61.46         172 
 61.48         167 
 61.5          145 
 61.52         139 
 61.54         143 
 61.56         123 
 61.58         119 
 61.6          127 
 61.62         123 
 61.64         132 
 61.66         113 
 61.68         128 
 61.7          147 
 61.72         137 
 61.74         132 
 61.76         150 
 61.78         148 
 61.8          149 
 61.82         121 
 61.84         118 
 61.86         123 
 61.88         107 
 61.9          82 
 61.92         124 
 61.94         80 
 61.96         115 
 61.98         87 
 62            86 
 62.02         85 
 62.04         82 
 62.06         87 
 62.08         90 
 62.1          83 
 62.12         91 
 62.14         107 
 62.16         99 
 62.18         83 
 62.2          90 
 62.22         98 
 62.24         82 
 62.26         89 
 62.28         92 
 62.3          89 
 62.32         83 
 62.34         92 
 62.36         87 
 62.38         87 
 62.4          70 
 62.42         67 
 62.44         80 
 62.46         89 
 62.48         82 
 62.5          80 
 62.52         79 
 62.54         83 
 62.56         87 
 62.58         87 
 62.6          91 
 62.62         94 
 62.64         81 
 62.66         98 
 62.68         99 
 62.7          94 
 62.72         103 
 62.74         104 
 62.76         114 
 62.78         81 
 62.8          133 
 62.82         99 
 62.84         126 
 62.86         139 
 62.88         153 
 62.9          164 
 62.92         195 
 62.94         210 
 62.96         236 
 62.98         267 
 63            276 
 63.02         291 
 63.04         306 
 63.06         287 
 63.08         315 
 63.1          282 
 63.12         304 
 63.14         307 
 63.16         276 
 63.18         285 
 63.2          275 
 63.22         242 
 63.24         291 
 63.26         236 
 63.28         215 
 63.3          198 
 63.32         178 
 63.34         192 
 63.36         161 
 63.38         194 
 63.4          178 
 63.42         190 
 63.44         214 
 63.46         200 
 63.48         251 
 63.5          268 
 63.52         283 
 63.54         301 
 63.56         290 
 63.58         275 
 63.6          308 
 63.62         283 
 63.64         279 
 63.66         236 
 63.68         225 
 63.7          228 
 63.72         211 
 63.74         249 
 63.76         249 
 63.78         192 
 63.8          195 
 63.82         180 
 63.84         136 
 63.86         148 
 63.88         120 
 63.9          124 
 63.92         119 
 63.94         115 
 63.96         113 
 63.98         100 
 64            84 
 64.02         91 
 64.04         85 
 64.06         84 
 64.08         95 
 64.1          79 
 64.12         93 
 64.14         93 
 64.16         80 
 64.18         99 
 64.2          70 
 64.22         85 
 64.24         95 
 64.26         73 
 64.28         83 
 64.3          82 
 64.32         88 
 64.34         92 
 64.36         88 
 64.38         79 
 64.4          91 
 64.42         78 
 64.44         94 
 64.46         85 
 64.48         93 
 64.5          99 
 64.52         99 
 64.54         95 
 64.56         101 
 64.58         97 
 64.6          147 
 64.62         133 
 64.64         159 
 64.66         190 
 64.68         210 
 64.7          199 
 64.72         214 
 64.74         191 
 64.76         194 
 64.78         185 
 64.8          159 
 64.82         176 
 64.84         189 
 64.86         201 
 64.88         214 
 64.9          244 
 64.92         255 
 64.94         270 
 64.96         231 
 64.98         239 
 65            258 
 65.02         257 
 65.04         204 
 65.06         217 
 65.08         209 
 65.1          224 
 65.12         235 
 65.14         244 
 65.16         248 
 65.18         261 
 65.2          234 
 65.22         223 
 65.24         194 
 65.26         188 
 65.28         169 
 65.3          155 
 65.32         161 
 65.34         149 
 65.36         172 
 65.38         159 
 65.4          140 
 65.42         139 
 65.44         152 
 65.46         171 
 65.48         150 
 65.5          171 
 65.52         175 
 65.54         181 
 65.56         171 
 65.58         187 
 65.6          134 
 65.62         135 
 65.64         152 
 65.66         165 
 65.68         151 
 65.7          149 
 65.72         144 
 65.74         168 
 65.76         173 
 65.78         165 
 65.8          139 
 65.82         149 
 65.84         157 
 65.86         141 
 65.88         126 
 65.9          147 
 65.92         156 
 65.94         120 
 65.96         141 
 65.98         120 
 66            110 
 66.02         138 
 66.04         96 
 66.06         120 
 66.08         112 
 66.1          109 
 66.12         90 
 66.14         110 
 66.16         91 
 66.18         100 
 66.2          108 
 66.22         91 
 66.24         120 
 66.26         111 
 66.28         120 
 66.3          107 
 66.32         116 
 66.34         130 
 66.36         145 
 66.38         146 
 66.4          174 
 66.42         173 
 66.44         200 
 66.46         246 
 66.48         191 
 66.5          225 
 66.52         235 
 66.54         241 
 66.56         228 
 66.58         253 
 66.6          223 
 66.62         202 
 66.64         208 
 66.66         161 
 66.68         165 
 66.7          148 
 66.72         171 
 66.74         139 
 66.76         136 
 66.78         140 
 66.8          146 
 66.82         121 
 66.84         99 
 66.86         108 
 66.88         106 
 66.9          97 
 66.92         96 
 66.94         96 
 66.96         89 
 66.98         110 
 67            124 
 67.02         143 
 67.04         124 
 67.06         151 
 67.08         172 
 67.1          188 
 67.12         159 
 67.14         175 
 67.16         193 
 67.18         214 
 67.2          184 
 67.22         190 
 67.24         192 
 67.26         204 
 67.28         210 
 67.3          259 
 67.32         277 
 67.34         243 
 67.36         265 
 67.38         246 
 67.4          308 
 67.42         274 
 67.44         319 
 67.46         337 
 67.48         330 
 67.5          380 
 67.52         320 
 67.54         349 
 67.56         330 
 67.58         319 
 67.6          313 
 67.62         273 
 67.64         287 
 67.66         242 
 67.68         225 
 67.7          220 
 67.72         239 
 67.74         187 
 67.76         176 
 67.78         162 
 67.8          150 
 67.82         120 
 67.84         102 
 67.86         99 
 67.88         94 
 67.9          72 
 67.92         79 
 67.94         70 
 67.96         83 
 67.98         66 
 68            53 
 68.02         65 
 68.04         55 
 68.06         64 
 68.08         66 
 68.1          53 
 68.12         52 
 68.14         56 
 68.16         57 
 68.18         68 
 68.2          54 
 68.22         70 
 68.24         49 
 68.26         62 
 68.28         54 
 68.3          73 
 68.32         51 
 68.34         54 
 68.36         64 
 68.38         71 
 68.4          73 
 68.42         80 
 68.44         79 
 68.46         82 
 68.48         78 
 68.5          72 
 68.52         77 
 68.54         98 
 68.56         114 
 68.58         110 
 68.6          118 
 68.62         138 
 68.64         140 
 68.66         160 
 68.68         170 
 68.7          183 
 68.72         179 
 68.74         198 
 68.76         208 
 68.78         204 
 68.8          224 
 68.82         213 
 68.84         186 
 68.86         193 
 68.88         204 
 68.9          175 
 68.92         195 
 68.94         227 
 68.96         195 
 68.98         197 
 69            173 
 69.02         190 
 69.04         145 
 69.06         134 
 69.08         107 
 69.1          119 
 69.12         120 
 69.14         128 
 69.16         120 
 69.18         124 
 69.2          114 
 69.22         123 
 69.24         109 
 69.26         94 
 69.28         103 
 69.3          109 
 69.32         136 
 69.34         158 
 69.36         167 
 69.38         163 
 69.4          198 
 69.42         213 
 69.44         272 
 69.46         280 
 69.48         281 
 69.5          318 
 69.52         288 
 69.54         273 
 69.56         303 
 69.58         300 
 69.6          297 
 69.62         294 
 69.64         302 
 69.66         303 
 69.68         329 
 69.7          356 
 69.72         310 
 69.74         286 
 69.76         286 
 69.78         224 
 69.8          196 
 69.82         165 
 69.84         186 
 69.86         147 
 69.88         197 
 69.9          201 
 69.92         187 
 69.94         194 
 69.96         163 
 69.98         177 
 70            165 
 70.02         168 
 70.04         161 
 70.06         154 
 70.08         160 
 70.1          137 
 70.12         147 
 70.14         141 
 70.16         156 
 70.18         149 
 70.2          141 
 70.22         138 
 70.24         153 
 70.26         127 
 70.28         155 
 70.3          168 
 70.32         145 
 70.34         115 
 70.36         130 
 70.38         117 
 70.4          124 
 70.42         117 
 70.44         134 
 70.46         123 
 70.48         141 
 70.5          140 
 70.52         149 
 70.54         194 
 70.56         203 
 70.58         233 
 70.6          251 
 70.62         274 
 70.64         333 
 70.66         348 
 70.68         351 
 70.7          326 
 70.72         307 
 70.74         292 
 70.76         260 
 70.78         233 
 70.8          215 
 70.82         212 
 70.84         205 
 70.86         227 
 70.88         214 
 70.9          203 
 70.92         178 
 70.94         154 
 70.96         135 
 70.98         107 
 71            112 
 71.02         80 
 71.04         87 
 71.06         81 
 71.08         87 
 71.1          81 
 71.12         89 
 71.14         85 
 71.16         86 
 71.18         85 
 71.2          96 
 71.22         112 
 71.24         99 
 71.26         81 
 71.28         86 
 71.3          79 
 71.32         81 
 71.34         86 
 71.36         88 
 71.38         81 
 71.4          91 
 71.42         104 
 71.44         105 
 71.46         112 
 71.48         111 
 71.5          77 
 71.52         90 
 71.54         88 
 71.56         87 
 71.58         71 
 71.6          85 
 71.62         85 
 71.64         92 
 71.66         100 
 71.68         116 
 71.7          103 
 71.72         104 
 71.74         77 
 71.76         96 
 71.78         95 
 71.8          68 
 71.82         78 
 71.84         73 
 71.86         61 
 71.88         78 
 71.9          75 
 71.92         66 
 71.94         73 
 71.96         79 
 71.98         64 
 72            54 
 72.02         58 
 72.04         63 
 72.06         49 
 72.08         75 
 72.1          56 
 72.12         63 
 72.14         65 
 72.16         56 
 72.18         54 
 72.2          55 
 72.22         62 
 72.24         50 
 72.26         63 
 72.28         46 
 72.3          49 
 72.32         58 
 72.34         55 
 72.36         50 
 72.38         68 
 72.4          46 
 72.42         63 
 72.44         50 
 72.46         65 
 72.48         61 
 72.5          70 
 72.52         78 
 72.54         73 
 72.56         74 
 72.58         73 
 72.6          75 
 72.62         98 
 72.64         134 
 72.66         132 
 72.68         164 
 72.7          179 
 72.72         206 
 72.74         213 
 72.76         230 
 72.78         246 
 72.8          258 
 72.82         257 
 72.84         236 
 72.86         276 
 72.88         271 
 72.9          246 
 72.92         238 
 72.94         247 
 72.96         246 
 72.98         257 
 73            245 
 73.02         256 
 73.04         221 
 73.06         229 
 73.08         239 
 73.1          213 
 73.12         203 
 73.14         182 
 73.16         187 
 73.18         154 
 73.2          158 
 73.22         176 
 73.24         173 
 73.26         157 
 73.28         163 
 73.3          174 
 73.32         171 
 73.34         148 
 73.36         150 
 73.38         155 
 73.4          151 
 73.42         164 
 73.44         196 
 73.46         221 
 73.48         219 
 73.5          224 
 73.52         215 
 73.54         240 
 73.56         236 
 73.58         228 
 73.6          245 
 73.62         240 
 73.64         210 
 73.66         226 
 73.68         270 
 73.7          233 
 73.72         274 
 73.74         250 
 73.76         238 
 73.78         198 
 73.8          207 
 73.82         194 
 73.84         188 
 73.86         188 
 73.88         231 
 73.9          217 
 73.92         222 
 73.93999      230 
 73.96         188 
 73.98         225 
 74            230 
 74.02         222 
 74.04         212 
 74.06         211 
 74.08         218 
 74.1          201 
 74.12         190 
 74.14         171 
 74.16         173 
 74.18         164 
 74.2          172 
 74.22         165 
 74.24         184 
 74.26         188 
 74.28         188 
 74.3          156 
 74.32         146 
 74.34         128 
 74.36         124 
 74.38         96 
 74.4          104 
 74.42         87 
 74.43999      97 
 74.46         93 
 74.48         96 
 74.5          94 
 74.52         68 
 74.54         67 
 74.56         58 
 74.58         57 
 74.6          65 
 74.62         57 
 74.64         58 
 74.66         50 
 74.68         62 
 74.7          57 
 74.72         56 
 74.74         54 
 74.76         75 
 74.78         61 
 74.8          70 
 74.82         66 
 74.84         63 
 74.86         72 
 74.88         70 
 74.9          69 
 74.92         91 
 74.93999      97 
 74.96         116 
 74.98         140 
 75            137 
