EC-Lab ASCII FILE
Nb header lines : 3                           
mode	ox/red	error	control changes	Ns changes	counter inc.	Ns	time/s	control/V/mA	Ewe/V	dq/mA.h	<I>/mA	P/W	(Q-Qo)/mA.h	x	Capacity/mA.h
1	0	0	1	1	0	1	42402,74	-0,100000001	4,18848658	0	0	0	0	0	0
1	0	0	1	0	0	1	42412,74	-0,100000001	3,7930119	-0,00027636286214668102	-0,099490630187489421	0,000377369142	-0,00027636286214668102	1,0311469960512696E-005	0,00027636286214668102
1	0	0	1	0	0	1	42422,74	-0,100000001	3,45944309	-0,0002777366307100488	-0,099985186869380646	0,000345893059	-0,00055409949285672979	2,0674197073176122E-005	0,00055409949285672979
1	0	0	1	0	0	1	42432,74	-0,100000001	3,13406587	-0,00027773725345192685	-0,099985411056456307	0,000313360855	-0,00083183674630865664	3,1036947421176307E-005	0,00083183674630865664
1	0	0	1	0	0	1	42442,74	-0,100000001	2,82610321	-0,00027773742935475376	-0,099985474381473894	0,000282569265	-0,0011095741756634102	4,1399704332347462E-005	0,0011095741756634102
1	0	0	1	0	0	1	42452,74	-0,100000001	2,51527619	-0,00027773751911313997	-0,099985506694492864	0,000251491176	-0,0013873116947765504	5,1762464592524691E-005	0,0013873116947765504
1	0	0	1	0	0	1	42462,74	-0,100000001	2,24483514	-0,00027773742603800365	-0,099985473187443866	0,000224450909	-0,0016650491208145539	6,212522137994345E-005	0,0016650491208145539
1	0	0	1	0	0	1	42472,74	-0,100000001	2,02453709	-0,00027773765094371306	-0,099985554153499098	0,00020242446	-0,0019427867717582672	7,2487986558896602E-005	0,0019427867717582672
1	0	0	1	0	0	1	42482,74	-0,100000001	1,84050035	-0,00027773746449790067	-0,099985487033006758	0,000184023331	-0,0022205242362561677	8,2850744781305818E-005	0,0022205242362561677
1	0	0	1	0	0	1	42492,74	-0,100000001	1,69313765	-0,00027773724716198112	-0,099985408792075866	0,000169289066	-0,0024982614834181488	9,3213494894619674E-005	0,0024982614834181488
1	0	0	1	0	0	1	42502,74	-0,100000001	1,58187163	-0,00027773731091825501	-0,099985431744334426	0,000158164112	-0,0027759987943364038	0,00010357624738676582	0,0027759987943364038
1	0	0	1	0	0	1	42512,74	-0,100000001	1,5148294	-0,00027773765841830106	-0,099985556844350771	0,000151461063	-0,0030537364527547046	0,00011393901284460592	0,0030537364527547046
1	0	0	1	0	0	1	42522,74	-0,100000001	1,48198617	-0,00027773753057089117	-0,09998551081928329	0,000148177147	-0,0033314739833255962	0,00012430177353228725	0,0033314739833255962
1	0	0	1	0	0	1	42532,74	-0,100000001	1,46178377	-0,00027773734028016528	-0,099985442314622106	0,000146157094	-0,0036092113236057613	0,00013466452711996573	0,0036092113236057613
1	0	0	1	0	0	1	42542,74	-0,100000001	1,44658422	-0,00027773767304668822	-0,099985562110570138	0,000144637539	-0,0038869489966524499	0,00014502729312361062	0,0038869489966524499
1	0	0	1	0	0	1	42552,74	-0,100000001	1,43380976	-0,00027773709019190733	-0,099985352282849408	0,000143359968	-0,0041646860868443571	0,00015539003738016	0,0041646860868443571
1	0	0	1	0	0	1	42562,74	-0,100000001	1,42281103	-0,0002777376186355121	-0,099985542522546765	0,000142260527	-0,0044424237054798688	0,00016575280135365072	0,0044424237054798688
1	0	0	1	0	0	1	42572,74	-0,100000001	1,41270983	-0,00027773789815232157	-0,09998564314859799	0,000141250697	-0,0047201616036321907	0,00017611557575628944	0,0047201616036321907
1	0	0	1	0	0	1	42582,74	-0,100000001	1,4030478	-0,00027773749594017866	-0,099985498352226803	0,000140284435	-0,0049978990995723693	0,00018647833515185232	0,0049978990995723693
1	0	0	1	0	0	1	42592,74	-0,100000001	1,39428329	-0,000277737725570384	-0,099985581019100582	0,000139408221	-0,0052756368251427539	0,00019684110311522691	0,0052756368251427539
1	0	0	1	0	0	1	42602,74	-0,100000001	1,38563323	-0,00027773759940721923	-0,099985535600361344	0,000138543284	-0,0055533744245499731	0,00020720386637128422	0,0055533744245499731
1	0	0	1	0	0	1	42612,74	-0,100000001	1,37732697	-0,00027773740782423155	-0,099985466630485914	0,000137712675	-0,0058311118323742042	0,00021756662247912262	0,0058311118323742042
1	0	0	1	0	0	1	42622,74	-0,100000001	1,36924982	-0,00027773725372097562	-0,099985411153313882	0,000136905001	-0,0061088490860951795	0,00022792937283716138	0,0061088490860951795
1	0	0	1	0	0	1	42632,74	-0,100000001	1,36142087	-0,00027773726751158637	-0,099985416117933734	0,000136122238	-0,0063865863536067674	0,0002382921237097464	0,0063865863536067674
1	0	0	1	0	0	1	42642,74	-0,100000001	1,35374475	-0,00027773707891172835	-0,099985348221984986	0,000135354639	-0,0066643234325184947	0,00024865486754541709	0,0066643234325184947
1	0	0	1	0	0	1	42652,74	-0,100000001	1,34603047	-0,00027773745117129549	-0,099985482235428902	0,000134583504	-0,0069420608836897907	0,00025901762527059274	0,0069420608836897907
1	0	0	1	0	0	1	42662,74	-0,100000001	1,33844972	-0,00027773785264293354	-0,09998562676521833	0,000133825728	-0,0072197987363327245	0,00026938039797521501	0,0072197987363327245
1	0	0	1	0	0	1	42672,74	-0,100000001	1,33107913	-0,00027773778839078214	-0,099985603634443866	0,000133088746	-0,0074975365247235072	0,00027974316828250317	0,0074975365247235072
1	0	0	1	0	0	1	42682,74	-0,100000001	1,32424319	-0,00027773771734949616	-0,099985578059580966	0,000132405214	-0,0077752742420730022	0,00029010593593914534	0,0077752742420730022
1	0	0	1	0	0	1	42692,74	-0,100000001	1,31981313	-0,00027773774967384006	-0,099985589696344742	0,000131962297	-0,0080530119917468429	0,00030046870480185235	0,0080530119917468429
1	0	0	1	0	0	1	42702,74	-0,100000001	1,31717801	-0,00027773772939501536	-0,099985582395967872	0,000131698805	-0,0083307497211418586	0,00031083147290792902	0,0083307497211418586
1	0	0	1	0	0	1	42712,74	-0,100000001	1,31505847	-0,00027773797194742496	-0,099985669714835162	0,000131487002	-0,0086084876930892838	0,0003211942500639623	0,0086084876930892838
1	0	0	1	0	0	1	42722,74	-0,100000001	1,31270981	-0,00027773810949880214	-0,099985719233330854	0,000131252236	-0,0088862258025880858	0,00033155703235222234	0,0088862258025880858
1	0	0	1	0	0	1	42732,74	-0,100000001	1,30999827	-0,00027773792350168032	-0,099985652274367117	0,000130981032	-0,0091639637260897651	0,00034191980770067974	0,0091639637260897651
1	0	0	1	0	0	1	42742,74	-0,100000001	1,30658031	-0,00027773758897847597	-0,099985531846013786	0,00013063912	-0,0094417013150682406	0,0003522825705676265	0,0094417013150682406
1	0	0	1	0	0	1	42752,74	-0,100000001	1,30266583	-0,00027773777096139062	-0,099985597359862938	0,000130247819	-0,0097194390860296307	0,00036264534022460058	0,0097194390860296307
1	0	0	1	0	0	1	42762,74	-0,100000001	1,29833138	-0,00027773783962676922	-0,099985622079399194	0,000129814463	-0,0099971769256564006	0,00037300811244357229	0,0099971769256564006
1	0	0	1	0	0	1	42772,74	-0,100000001	1,29327118	-0,0002777381731652551	-0,099985742153253888	0,000129308683	-0,010274915098821654	0,00038337089710731328	0,010274915098821654
1	0	0	1	0	0	1	42782,74	-0,100000001	1,28761911	-0,00027773804325569008	-0,09998569538581056	0,000128743486	-0,010552653142077346	0,00039373367692395373	0,010552653142077346
1	0	0	1	0	0	1	42792,74	-0,100000001	1,28185248	-0,00027773796148391235	-0,099985665947970637	0,000128166881	-0,010830391103561258	0,00040409645368957926	0,010830391103561258
1	0	0	1	0	0	1	42802,74	-0,100000001	1,27553201	-0,00027773750813967651	-0,099985502744046042	0,000127534702	-0,011108128611700933	0,00041445921354032179	0,011108128611700933
1	0	0	1	0	0	1	42812,74	-0,100000001	1,26917338	-0,00027773768907537062	-0,099985567880895782	0,000126899016	-0,011385866300776304	0,00042482198014201837	0,011385866300776304
1	0	0	1	0	0	1	42822,74	-0,100000001	1,26250935	-0,00027773796126867334	-0,099985665870484582	0,000126232844	-0,011663604262044976	0,00043518475689961306	0,011663604262044976
1	0	0	1	0	0	1	42832,74	-0,100000001	1,25607431	-0,00027773783797687958	-0,099985621485438925	0,000125589373	-0,011941342100021858	0,00044554752905702509	0,011941342100021858
1	0	0	1	0	0	1	42842,74	-0,100000001	1,24939108	-0,00027773802988479536	-0,099985690572288474	0,000124921236	-0,012219080129906653	0,00045591030837477952	0,012219080129906653
1	0	0	1	0	0	1	42852,74	-0,100000001	1,24268878	-0,00027773823919643958	-0,099985765924480243	0,000124251193	-0,012496818369103091	0,00046627309550223283	0,012496818369103091
1	0	0	1	0	0	1	42862,74	-0,100000001	1,23592913	-0,00027773799089135395	-0,0999856765346496	0,000123575213	-0,012774556359994445	0,00047663587336508954	0,012774556359994445
1	0	0	1	0	0	1	42872,74	-0,100000001	1,22915053	-0,00027773783056644928	-0,099985618817684019	0,000122897371	-0,013052294190560893	0,00048699864524600845	0,013052294190560893
1	0	0	1	0	0	1	42882,74	-0,100000001	1,22223818	-0,00027773776722492445	-0,099985596014735117	0,000122206213	-0,013330031957785818	0,00049736141476356992	0,013330031957785818
1	0	0	1	0	0	1	42892,74	-0,100000001	1,21547854	-0,00027773791558254096	-0,099985649423476954	0,000121530415	-0,013607769873368358	0,0005077241898165536	0,013607769873368358
1	0	0	1	0	0	1	42902,74	-0,100000001	1,20839429	-0,00027773784894578989	-0,099985625434246618	0,000120822056	-0,01388550772231415	0,00051808696238323046	0,01388550772231415
1	0	0	1	0	0	1	42912,74	-0,100000001	1,20127189	-0,0002777379874429769	-0,099985675293233856	0,00012010998	-0,014163245709757125	0,00052844974011742355	0,014163245709757125
1	0	0	1	0	0	1	42922,74	-0,100000001	1,19418776	-0,00027773792834745514	-0,099985654018846054	0,000119401644	-0,014440983638104582	0,00053881251564668326	0,014440983638104582
1	0	0	1	0	0	1	42932,74	-0,100000001	1,18700802	-0,00027773782420199779	-0,099985616526481485	0,000118683733	-0,014718721462306579	0,00054917528729013606	0,014718721462306579
1	0	0	1	0	0	1	42942,74	-0,100000001	1,17971373	-0,00027773779507560861	-0,099985606040981402	0,000117954391	-0,014996459257382189	0,00055953805784684403	0,014996459257382189
1	0	0	1	0	0	1	42952,74	-0,100000001	1,17224765	-0,00027773790871020816	-0,099985646949437146	0,000117207943	-0,015274197166092397	0,00056990083264341158	0,015274197166092397
1	0	0	1	0	0	1	42962,74	-0,100000001	1,16457152	-0,00027773804127424957	-0,099985694672491981	0,000116440489	-0,015551935207366643	0,00058026361238612186	0,015551935207366643
1	0	0	1	0	0	1	42972,74	-0,100000001	1,15700996	-0,00027773787881806493	-0,099985636188265613	0,000115684379	-0,015829673086184707	0,00059062638606737357	0,015829673086184707
1	0	0	1	0	0	1	42982,74	-0,100000001	1,1488564	-0,00027773809744872979	-0,099985714895304819	0,000114869232	-0,016107411183633437	0,00060098916790602918	0,016107411183633437
1	0	0	1	0	0	1	42992,74	-0,100000001	1,14087474	-0,00027773798024447424	-0,099985672701772902	0,000114071132	-0,016385149163877914	0,00061135194537163648	0,016385149163877914
1	0	0	1	0	0	1	43002,74	-0,100000001	1,13258755	-0,00027773771916950742	-0,099985578714785024	0,000113242422	-0,016662886883047421	0,00062171471309618586	0,016662886883047421
1	0	0	1	0	0	1	43012,74	-0,100000001	1,12414765	-0,00027773769491455619	-0,099985569983002598	0,000112398542	-0,016940624577961978	0,00063207747991575027	0,016940624577961978
1	0	0	1	0	0	1	43022,74	-0,100000001	1,11547852	-0,00027773771120649248	-0,099985575848099635	0,000111531765	-0,01721836228916847	0,00064244024734318874	0,01721836228916847
1	0	0	1	0	0	1	43032,74	-0,100000001	1,10654211	-0,00027773813668100374	-0,099985729018923418	0,000110638422	-0,017496100425849475	0,00065280303064565325	0,017496100425849475
1	0	0	1	0	0	1	43042,74	-0,100000001	1,09743381	-0,00027773822122729488	-0,099985759455588173	0,000109727749	-0,017773838647076771	0,0006631658171026537	0,017773838647076771
1	0	0	1	0	0	1	43052,74	-0,100000001	1,08813465	-0,00027773800073605446	-0,099985680078741773	0,000108797882	-0,018051576647812822	0,00067352859533282944	0,018051576647812822
1	0	0	1	0	0	1	43062,74	-0,100000001	1,07858717	-0,00027773768215336733	-0,099985565388974618	0,000107843145	-0,018329314329966192	0,00068389136167625677	0,018329314329966192
1	0	0	1	0	0	1	43072,74	-0,100000001	1,06858146	-0,00027773784138800365	-0,099985622713443584	0,000106842781	-0,018607052171354198	0,00069425413396094246	0,018607052171354198
1	0	0	1	0	0	1	43082,74	-0,100000001	1,0589385	-0,00027773829911400877	-0,09998578749480512	0,000105878797	-0,018884790470468205	0,0007046169233240009	0,018884790470468205
1	0	0	1	0	0	1	43092,74	-0,100000001	1,04868448	-0,00027773806961915558	-0,099985704876658125	0,000104853454	-0,019162528540087363	0,00071497970412429773	0,019162528540087363
1	0	0	1	0	0	1	43102,74	-0,100000001	1,0384115	-0,00027773782101853024	-0,099985615380433165	0,000103826213	-0,019440266361105894	0,00072534247564897101	0,019440266361105894
1	0	0	1	0	0	1	43112,74	-0,100000001	1,02823389	-0,00027773772456165818	-0,099985580655959296	0,000102808561	-0,019718004085667549	0,00073570524357470861	0,019718004085667549
1	0	0	1	0	0	1	43122,74	-0,100000001	1,01801813	-0,00027773771081036989	-0,099985575705495514	0,000101787125	-0,01999574179647792	0,00074606801098736717	0,01999574179647792
1	0	0	1	0	0	1	43132,74	-0,100000001	1,00824153	-0,0002777373973209825	-0,099985462849316262	0,000100809499	-0,020273479193798902	0,00075643076670331533	0,020273479193798902
1	0	0	1	0	0	1	43142,74	-0,100000001	0,998980463	-0,00027773760013779005	-0,099985535863366848	9,98835967E-005	-0,020551216793936691	0,00076679352998663117	0,020551216793936691
1	0	0	1	0	0	1	43152,74	-0,100000001	0,990521431	-0,00027773917107159894	-0,099986101399536998	9,90383778E-005	-0,020828955965008291	0,00077715635188359962	0,020828955965008291
1	0	0	1	0	0	1	43162,74	-0,100000001	0,983055294	-0,00027773916793035136	-0,099986100268687872	9,82918646E-005	-0,021106695132938643	0,00078751917366336397	0,021106695132938643
1	0	0	1	0	0	1	43172,74	-0,100000001	0,976219356	-0,0002777396797409488	-0,099986284520502592	9,7608543E-005	-0,021384434812679594	0,0007978820145394697	0,021384434812679594
1	0	0	1	0	0	1	43182,74	-0,100000001	0,970490873	-0,00027773916614469555	-0,099986099625851763	9,70355977E-005	-0,021662173978824288	0,00080824483625260864	0,021662173978824288
1	0	0	1	0	0	1	43192,74	-0,100000001	0,965430737	-0,00027773919230368403	-0,099986109043087603	9,6529664E-005	-0,021939913171127971	0,00081860765894177472	0,021939913171127971
1	0	0	1	0	0	1	43202,74	-0,100000001	0,961096168	-0,00027773914576694371	-0,09998609228986112	9,60962498E-005	-0,022217652316894915	0,00082897047989459238	0,022217652316894915
1	0	0	1	0	0	1	43212,74	-0,100000001	0,956952572	-0,00027773928321028752	-0,099986141769464794	9,56819931E-005	-0,022495391600105203	0,00083933330597560602	0,022495391600105203
1	0	0	1	0	0	1	43222,74	-0,100000001	0,953591883	-0,00027773968684176608	-0,099986287076796813	9,53461131E-005	-0,02277313128694697	0,00084969614711665293	0,02277313128694697
1	0	0	1	0	0	1	43232,74	-0,100000001	0,950460315	-0,0002777398976869881	-0,099986362981076608	9,50330723E-005	-0,023050871184633958	0,0008600589961246185	0,023050871184633958
1	0	0	1	0	0	1	43242,74	-0,100000001	0,947672427	-0,00027773981719919379	-0,099986334005470707	9,4754294E-005	-0,023328611001833152	0,0008704218421294761	0,023328611001833152
1	0	0	1	0	0	1	43252,74	-0,100000001	0,945304692	-0,00027773995015273491	-0,099986381868745421	9,45175925E-005	-0,023606350951985885	0,00088078469309500915	0,023606350951985885
1	0	0	1	0	0	1	43262,74	-0,100000001	0,942994177	-0,00027773942416699395	-0,099986192513879027	9,4286399E-005	-0,023884090376152877	0,00089114752443530688	0,023884090376152877
1	0	0	1	0	0	1	43272,74	-0,100000001	0,941141963	-0,00027774026269217331	-0,099986494382943027	9,41014878E-005	-0,02416183063884505	0,00090151038706210662	0,02416183063884505
1	0	0	1	0	0	1	43282,74	-0,100000001	0,939079762	-0,00027773993250686262	-0,099986375516231411	9,38951853E-005	-0,02443957057135191	0,00091187323736924851	0,02443957057135191
1	0	0	1	0	0	1	43292,74	-0,100000001	0,937418461	-0,00027773990740047562	-0,099986366477932109	9,37290679E-005	-0,024717310478752387	0,00092223608673963738	0,024717310478752387
1	0	0	1	0	0	1	43302,74	-0,100000001	0,935776293	-0,00027773979024506278	-0,099986324301983565	9,3564835E-005	-0,02499505026899745	0,00093259893173880026	0,02499505026899745
1	0	0	1	0	0	1	43312,74	-0,100000001	0,934076846	-0,00027773974958144957	-0,099986309663082829	9,33948977E-005	-0,025272790018578899	0,00094296177522074893	0,025272790018578899
1	0	0	1	0	0	1	43322,74	-0,100000001	0,932396531	-0,00027773964243589174	-0,099986271090682086	9,32268522E-005	-0,02555052966101479	0,00095332461470495283	0,02555052966101479
1	0	0	1	0	0	1	43332,74	-0,100000001	0,930773437	-0,00027774001278148758	-0,099986404415096333	9,30646929E-005	-0,025828269673796275	0,0009636874680072489	0,025828269673796275
1	0	0	1	0	0	1	43342,74	-0,100000001	0,929150403	-0,00027774003373624547	-0,099986411958809152	9,29024172E-005	-0,026106009707532522	0,00097405032209139507	0,026106009707532522
1	0	0	1	0	0	1	43352,74	-0,100000001	0,927470028	-0,00027773994012383949	-0,099986378258343078	9,27343717E-005	-0,026383749647656362	0,00098441317268273651	0,026383749647656362
1	0	0	1	0	0	1	43362,74	-0,100000001	0,925617814	-0,00027773987745245296	-0,099986355696643981	9,25491549E-005	-0,026661489525108813	0,00099477602093572442	0,026661489525108813
1	0	0	1	0	0	1	43372,74	-0,100000001	0,923784733	-0,00027773999020208915	-0,099986396286512922	9,23659099E-005	-0,026939229515310902	0,0010051388733955528	0,026939229515310902
1	0	0	1	0	0	1	43382,74	-0,100000001	0,921894312	-0,00027773962684555187	-0,099986265478159744	9,21767714E-005	-0,027216969142156454	0,0010155017122980602	0,027216969142156454
1	0	0	1	0	0	1	43392,74	-0,100000001	0,919908464	-0,00027773971014718214	-0,099986295466746586	9,19782397E-005	-0,027494708852303638	0,0010258645543086634	0,027494708852303638
1	0	0	1	0	0	1	43402,74	-0,100000001	0,917941689	-0,00027773961957130163	-0,099986262859429658	9,1781556E-005	-0,027772448471874941	0,0010362273929397587	0,027772448471874941
1	0	0	1	0	0	1	43412,74	-0,100000001	0,915993989	-0,00027773985864635974	-0,099986348926450419	9,1586895E-005	-0,028050188330521302	0,0010465902404910661	0,028050188330521302
1	0	0	1	0	0	1	43422,74	-0,100000001	0,913874447	-0,00027773970316929952	-0,099986292954708838	9,13749172E-005	-0,028327928033690602	0,001056953082241315	0,028327928033690602
1	0	0	1	0	0	1	43432,74	-0,100000001	0,911640346	-0,00027773966407279171	-0,099986278879966054	9,11515235E-005	-0,028605667697763392	0,0010673159225328208	0,028605667697763392
1	0	0	1	0	0	1	43442,74	-0,100000001	0,909578085	-0,00027773989542035597	-0,099986362165089037	9,09454029E-005	-0,02888340759318375	0,0010776787714562152	0,02888340759318375
1	0	0	1	0	0	1	43452,74	-0,100000001	0,90738219	-0,00027773947873339059	-0,099986212157781798	9,07257054E-005	-0,029161147071917139	0,0010880416048324587	0,029161147071917139
1	0	0	1	0	0	1	43462,74	-0,100000001	0,905148089	-0,00027773919852036573	-0,099986111281093018	9,05022389E-005	-0,029438886270437504	0,0010984044277535776	0,029438886270437504
1	0	0	1	0	0	1	43472,74	-0,100000001	0,902703941	-0,00027773914360710314	-0,099986091512318515	9,02578395E-005	-0,029716625414044608	0,0011087672486258088	0,029716625414044608
1	0	0	1	0	0	1	43482,74	-0,100000001	0,900546193	-0,00027773916947634685	-0,099986100825246246	9,00421001E-005	-0,029994364583520954	0,0011191300704632562	0,029994364583520954
1	0	0	1	0	0	1	43492,74	-0,100000001	0,898235738	-0,00027773937167475622	-0,099986173616673485	8,98111539E-005	-0,030272103955195712	0,0011294928998449981	0,030272103955195712
1	0	0	1	0	0	1	43502,74	-0,100000001	0,895982563	-0,00027773904625078045	-0,099986056464042406	8,95857665E-005	-0,03054984300144649	0,0011398557170847339	0,03054984300144649
1	0	0	1	0	0	1	43512,74	-0,100000001	0,893652976	-0,00027773924549793203	-0,099986128193016858	8,93528995E-005	-0,030827582246944429	0,001150218541758649	0,030827582246944429
1	0	0	1	0	0	1	43522,74	-0,100000001	0,891246974	-0,00027773913887888195	-0,099986089810158899	8,91122982E-005	-0,031105321385823309	0,001160581362454464	0,031105321385823309
1	0	0	1	0	0	1	43532,74	-0,100000001	0,88893652	-0,00027773892506253389	-0,099986012836273741	8,8881221E-005	-0,031383060310885843	0,0011709441751725034	0,031383060310885843
1	0	0	1	0	0	1	43542,74	-0,100000001	0,886606932	-0,00027773917300088538	-0,099986102094080115	8,86483685E-005	-0,031660799483886726	0,0011813069971414558	0,031660799483886726
1	0	0	1	0	0	1	43552,74	-0,100000001	0,884181857	-0,0002777393016339176	-0,099986148401971622	8,84059409E-005	-0,031938538785520646	0,00119166982390988	0,031938538785520646
1	0	0	1	0	0	1	43562,74	-0,100000001	0,881871402	-0,00027773925340010058	-0,09998613103779753	8,81749074E-005	-0,032216278038920742	0,0012020326488786355	0,032216278038920742
1	0	0	1	0	0	1	43572,74	-0,100000001	0,879255414	-0,00027773898021421501	-0,099986032690878899	8,7913264E-005	-0,032494017019134957	0,0012123954636544581	0,032494017019134957
1	0	0	1	0	0	1	43582,74	-0,100000001	0,876925826	-0,0002777391460219191	-0,099986092381652262	8,76803897E-005	-0,03277175616515687	0,0012227582846167893	0,03277175616515687
1	0	0	1	0	0	1	43592,74	-0,100000001	0,874634445	-0,00027773899428132506	-0,099986037755038502	8,74512334E-005	-0,033049495159438195	0,0012331210999174749	0,033049495159438195
1	0	0	1	0	0	1	43602,74	-0,100000001	0,872075737	-0,00027773947832567821	-0,099986212011005312	8,7195549E-005	-0,033327234637763872	0,0012434839332785059	0,033327234637763872
1	0	0	1	0	0	1	43612,74	-0,100000001	0,869440615	-0,00027773973810010483	-0,099986305529798746	8,6932152E-005	-0,033604974375863981	0,0012538467763320707	0,033604974375863981
1	0	0	1	0	0	1	43622,74	-0,100000001	0,867206514	-0,00027773958851438429	-0,09998625167893943	8,67087292E-005	-0,033882713964378362	0,0012642096138043904	0,033882713964378362
1	0	0	1	0	0	1	43632,74	-0,100000001	0,864666879	-0,00027773960638667146	-0,099986258112962803	8,64548056E-005	-0,03416045357076503	0,0012745724519435491	0,03416045357076503
1	0	0	1	0	0	1	43642,74	-0,100000001	0,862031817	-0,00027773894265335466	-0,099986019168969203	8,61911321E-005	-0,034438192513418394	0,0012849352653179261	0,034438192513418394
1	0	0	1	0	0	1	43652,74	-0,100000001	0,859702229	-0,00027773943182701862	-0,09998619527148791	8,59583524E-005	-0,034715931945245408	0,0012952980969440298	0,034715931945245408
1	0	0	1	0	0	1	43662,74	-0,100000001	0,857067108	-0,00027773936111107469	-0,099986169813748122	8,56948609E-005	-0,034993671306356486	0,0013056609259316267	0,034993671306356486
1	0	0	1	0	0	1	43672,74	-0,100000001	0,854642034	-0,00027773880022391677	-0,099985967894371674	8,54522077E-005	-0,035271410106580403	0,0013160237339917693	0,035271410106580403
1	0	0	1	0	0	1	43682,74	-0,100000001	0,852045178	-0,0002777396472361353	-0,099986272818769766	8,51928198E-005	-0,035549149753816538	0,0013263865736550768	0,035549149753816538
1	0	0	1	0	0	1	43692,74	-0,100000001	0,849524617	-0,00027773964544758205	-0,099986272174890586	8,49408025E-005	-0,035826889399264122	0,001336749413251651	0,035826889399264122
1	0	0	1	0	0	1	43702,74	-0,100000001	0,847023189	-0,00027773980883260563	-0,09998633099349897	8,46907424E-005	-0,03610462920809673	0,00134711225894434	0,03610462920809673
1	0	0	1	0	0	1	43712,74	-0,100000001	0,844330788	-0,00027773966023408707	-0,099986277498032397	8,44214956E-005	-0,036382368868330816	0,0013574750990926187	0,036382368868330816
1	0	0	1	0	0	1	43722,74	-0,100000001	0,841772079	-0,00027773937337059117	-0,099986174227174054	8,4165571E-005	-0,036660108241701408	0,0013678379285376346	0,036660108241701408
1	0	0	1	0	0	1	43732,74	-0,100000001	0,839194298	-0,0002777391043864191	-0,099986077392872294	8,39077475E-005	-0,036937847346087827	0,0013782007479464893	0,036937847346087827
1	0	0	1	0	0	1	43742,74	-0,100000001	0,836616457	-0,00027773934587919053	-0,099986164330269837	8,36500694E-005	-0,037215586691967021	0,0013885635763657642	0,037215586691967021
1	0	0	1	0	0	1	43752,74	-0,100000001	0,833981395	-0,00027773937020906141	-0,09998617308902336	8,3386607E-005	-0,037493326062176083	0,0013989264056928189	0,037493326062176083
1	0	0	1	0	0	1	43762,74	-0,100000001	0,831403553	-0,00027773952104068467	-0,099986227388407629	8,31289071E-005	-0,037771065583216768	0,0014092892406476045	0,037771065583216768
1	0	0	1	0	0	1	43772,74	-0,100000001	0,828749359	-0,00027773966991487475	-0,099986280983115955	8,28635675E-005	-0,038048805253131642	0,0014196520811570862	0,038048805253131642
1	0	0	1	0	0	1	43782,74	-0,100000001	0,826247931	-0,00027773957329284813	-0,099986246199186432	8,26134274E-005	-0,038326544826424486	0,0014300149180614702	0,038326544826424486
1	0	0	1	0	0	1	43792,74	-0,100000001	0,823574662	-0,00027773896774484051	-0,09998602820190409	8,23459559E-005	-0,038604283794169331	0,001440377732372044	0,038604283794169331
1	0	0	1	0	0	1	43802,74	-0,100000001	0,820844054	-0,00027773888015747069	-0,099985996670451021	8,2072911E-005	-0,038882022674326797	0,001450740543414615	0,038882022674326797
1	0	0	1	0	0	1	43812,74	-0,100000001	0,818151712	-0,00027773945702322656	-0,099986204342122739	8,18038825E-005	-0,039159762131350022	0,001461103375980823	0,039159762131350022
1	0	0	1	0	0	1	43822,74	-0,100000001	0,815650284	-0,00027773930197291904	-0,099986148524012134	8,15537278E-005	-0,039437501433322938	0,0014714662027618957	0,039437501433322938
1	0	0	1	0	0	1	43832,74	-0,100000001	0,812957883	-0,00027773944528400899	-0,099986200116004429	8,12845683E-005	-0,03971524087860695	0,0014818290348900979	0,03971524087860695
1	0	0	1	0	0	1	43842,74	-0,100000001	0,810360968	-0,00027773966086986995	-0,099986277726914227	8,10249767E-005	-0,039992980539476819	0,0014921918750620982	0,039992980539476819
1	0	0	1	0	0	1	43852,74	-0,100000001	0,807592213	-0,00027773961568540998	-0,099986261460508685	8,07481265E-005	-0,040270720155162234	0,0015025547135482058	0,040270720155162234
1	0	0	1	0	0	1	43862,74	-0,100000001	0,805014372	-0,00027773941274566781	-0,099986188402201626	8,04903175E-005	-0,040548459567907904	0,0015129175444623587	0,040548459567907904
1	0	0	1	0	0	1	43872,74	-0,100000001	0,80232203	-0,00027773921999666426	-0,099986119012560474	8,02210634E-005	-0,04082619878790457	0,0015232803681847872	0,04082619878790457
1	0	0	1	0	0	1	43881,03	-0,100000001	0,800145209	-0,00023030124950201978	-0,099986070509334298	8,0003374E-005	-0,041056500037406586	0,0015318732174470304	0,041056500037406586
1	1	0	0	1	0	2	43881,03	0,100000001	0,812203467	5,4885666403505536E-009	0,032931401472712102	2,67469986E-005	-0,041056494548839942	0,0015318730126612298	5,4885666403505536E-009
1	1	0	0	0	0	2	43891,03	0,100000001	0,832466483	0,00027780659787936342	0,10001037505028701	8,32552832E-005	-0,040778687950960582	0,0015215076749794077	0,00027781208644600378
1	1	0	0	0	0	2	43901,03	0,100000001	0,838290393	0,00027780715679170355	0,10001057625872906	8,38379055E-005	-0,040500880794168877	0,0015111423164438141	0,00055561924323770733
1	1	0	0	0	0	2	43911,03	0,100000001	0,843503356	0,00027780733809620147	0,10001064152834819	8,43593152E-005	-0,040223073456072678	0,0015007769511435062	0,00083342658133390886
1	1	0	0	0	0	2	43921,03	0,100000001	0,848143399	0,00027780759780853984	0,10001073502478984	8,48234413E-005	-0,039945265858264141	0,0014904115761529821	0,0011112341791424488
1	1	0	0	0	0	2	43931,03	0,100000001	0,852267921	0,00027780691367760304	0,10001048873765304	8,52357334E-005	-0,039667458944586534	0,0014800462266883027	0,0013890410928200517
1	1	0	0	0	0	2	43941,03	0,100000001	0,856583357	0,00027780764881190326	0,10001075338600062	8,5667547E-005	-0,03938965129577463	0,0014696808497947744	0,0016668487416319549
1	1	0	0	0	0	2	43951,03	0,100000001	0,860593259	0,00027780783989404637	0,10001082217557203	8,60686414E-005	-0,039111843455880582	0,0014593154657717139	0,0019446565815260013
1	1	0	0	0	0	2	43961,03	0,100000001	0,864526808	0,00027780719040292832	0,10001058835876997	8,64618341E-005	-0,038834036265477658	0,0014489501059820406	0,0022224637719289296
1	1	0	0	0	0	2	43971,03	0,100000001	0,868403077	0,00027780754987026259	0,10001071776701005	8,68496136E-005	-0,038556228715607392	0,0014385847327801578	0,0025002713217991923
1	1	0	0	0	0	2	43981,03	0,100000001	0,872126579	0,00027780748657675251	0,10001069498134646	8,72219825E-005	-0,038278421229030643	0,001428219361939841	0,002778078808375945
1	1	0	0	0	0	2	43991,03	0,100000001	0,875869215	0,00027780752384124531	0,10001070839656384	8,75963015E-005	-0,038000613705189395	0,0014178539897091358	0,0030558863322171904
1	1	0	0	0	0	2	44001,03	0,100000001	0,87949723	0,00027780727443678512	0,10001061861095835	8,79590589E-005	-0,037722806430752614	0,0014074886267840464	0,003333693606653975
1	1	0	0	0	0	2	44011,03	0,100000001	0,883144379	0,00027780747254606752	0,10001068993029987	8,83238754E-005	-0,037444998958206541	0,001397123256467233	0,0036115010792000429
1	1	0	0	0	0	2	44021,03	0,100000001	0,886676908	0,00027780732908389635	0,10001063828391837	8,86771231E-005	-0,037167191629122643	0,0013867578915031864	0,0038893084082839392
1	1	0	0	0	0	2	44031,03	0,100000001	0,890094876	0,0002778074772208929	0,10001069161323702	8,90190058E-005	-0,036889384151901754	0,0013763925210119493	0,0041671158855048314
1	1	0	0	0	0	2	44041,03	0,100000001	0,893761098	0,00027780749898693629	0,10001069944901261	8,93856704E-005	-0,036611576652914822	0,0013660271497085918	0,0044449233844917683
1	1	0	0	0	0	2	44051,03	0,100000001	0,897179127	0,00027780723648476934	0,10001060494823269	8,97274294E-005	-0,036333769416430054	0,001355661788199543	0,004722730620976537
1	1	0	0	0	0	2	44061,03	0,100000001	0,900654376	0,00027780764801303539	0,10001075309840821	9,00751256E-005	-0,036055961768417018	0,0013452964113358216	0,0050005382689895725
1	1	0	0	0	0	2	44071,03	0,100000001	0,904053271	0,00027780745373790464	0,10001068315936125	9,04149856E-005	-0,03577815431467911	0,0013349310417207662	0,0052783457227274771
1	1	0	0	0	0	2	44081,03	0,100000001	0,907261252	0,00027780730207636954	0,1000106285612087	9,0735768E-005	-0,035500347012602739	0,0013245656777644066	0,005556153024803847
1	1	0	0	0	0	2	44091,03	0,100000001	0,910755575	0,00027780721228900883	0,10001059623775891	9,10852104E-005	-0,035222539800313728	0,0013142003171581341	0,0058339602370928563
1	1	0	0	0	0	2	44101,03	0,100000001	0,913963556	0,00027780751582193706	0,1000107055096129	9,14061384E-005	-0,034944732284491789	0,0013038349452266402	0,006111767752914793
1	1	0	0	0	0	2	44111,03	0,100000001	0,917324245	0,00027780751452305254	0,10001070504201445	9,1742244E-005	-0,034666924769968736	0,0012934695733436091	0,0063895752674378445
1	1	0	0	0	0	2	44121,03	0,100000001	0,92049402	0,00027780761618663869	0,10001074164090539	9,20592865E-005	-0,034389117153782093	0,0012831041976673731	0,0066673828836244838
1	1	0	0	0	0	2	44131,03	0,100000001	0,923873782	0,00027780777643745149	0,1000107993311979	9,23973566E-005	-0,03411130937734464	0,0012727388160119637	0,0069451906600619354
1	1	0	0	0	0	2	44141,03	0,100000001	0,926967144	0,0002778078017429345	0,10001080844117178	9,27067304E-005	-0,033833501575601709	0,0012623734334123728	0,0072229984618048704
1	1	0	0	0	0	2	44151,03	0,100000001	0,930175126	0,00027780719122663139	0,10001058865530307	9,302736E-005	-0,033555694384375078	0,0012520080735919662	0,0075008056530315008
1	1	0	0	0	0	2	44161,03	0,100000001	0,933211207	0,00027780726473902659	0,10001061511976528	9,33310293E-005	-0,033277887119636051	0,0012416427110287133	0,007778612917770528
1	1	0	0	0	0	2	44171,03	0,100000001	0,936380982	0,00027780760608323744	0,10001073800368098	9,3648152E-005	-0,033000079513552813	0,0012312773357294486	0,0080564205238537664
1	1	0	0	0	0	2	44181,03	0,100000001	0,939512491	0,00027780731378081773	0,10001063277481006	9,39612364E-005	-0,032722272199771994	0,0012209119713363805	0,008334227837634583
1	1	0	0	0	0	2	44191,03	0,100000001	0,942567706	0,00027780732525471187	0,10001063690541194	9,42667975E-005	-0,032444464874517286	0,0012105466065152056	0,0086120351628892941
1	1	0	0	0	0	2	44201,03	0,100000001	0,945699275	0,0002778071457656721	0,10001057228935774	9,45799256E-005	-0,03216665772875161	0,0012001812483910085	0,0088898423086549658
1	1	0	0	0	0	2	44211,03	0,100000001	0,948678076	0,00027780719447425667	0,10001058982444816	9,48778543E-005	-0,031888850534277357	0,0011898158884494285	0,0091676495031292224
1	1	0	0	0	0	2	44221,03	0,100000001	0,951771438	0,00027780685581266886	0,10001046790627677	9,51871043E-005	-0,031611043678464685	0,0011794505411437675	0,0094454563589418918
1	1	0	0	0	0	2	44231,03	0,100000001	0,954502046	0,00027780715993543466	0,10001057739047227	9,5460302E-005	-0,031333236518529248	0,0011690851824908774	0,0097232635188773261
1	1	0	0	0	0	2	44241,03	0,100000001	0,957576275	0,0002778068853819536	0,10001047855121925	9,57676602E-005	-0,031055429633147296	0,0011587198340819469	0,01000107040425928
1	1	0	0	0	0	2	44251,03	0,100000001	0,960421443	0,00027780684998714259	0,10001046580908733	9,60521938E-005	-0,030777622783160154	0,0011483544869936443	0,010278877254246422
1	1	0	0	0	0	2	44261,03	0,100000001	0,963132918	0,00027780738570499747	0,10001065866751472	9,6323558E-005	-0,030499815397455155	0,0011379891199169883	0,010556684639951421
1	1	0	0	0	0	2	44271,03	0,100000001	0,96611172	0,00027780699959811235	0,10001051966903635	9,66213338E-005	-0,030222008397857043	0,0011276237672464994	0,010834491639549533
1	1	0	0	0	0	2	44281,03	0,100000001	0,968651354	0,00027780701915133334	0,10001052670819587	9,68753302E-005	-0,029944201378705709	0,0011172584138464531	0,011112298658700867
1	1	0	0	0	0	2	44291,03	0,100000001	0,971458316	0,00027780703197999133	0,10001053132651275	9,71560657E-005	-0,029666394346725715	0,0011068930599677526	0,011390105690680858
1	1	0	0	0	0	2	44301,03	0,100000001	0,974265277	0,0002778073959822456	0,10001066236732405	9,74369177E-005	-0,029388586950743469	0,0010965276925076387	0,011667913086663101
1	1	0	0	0	0	2	44311,03	0,100000001	0,977396786	0,0002778074335890512	0,10001067590577403	9,77501113E-005	-0,029110779517154419	0,001086162323644364	0,011945720520252155
1	1	0	0	0	0	2	44321,03	0,100000001	0,980776608	0,00027780718803198797	0,10001058750523144	9,80880432E-005	-0,028832972329122432	0,0010757969639431538	0,012223527708284142
1	1	0	0	0	0	2	44331,03	0,100000001	0,98478657	0,00027780716502832042	0,10001057922391114	9,84890721E-005	-0,028555165164094115	0,0010654316051002413	0,012501334873312461
1	1	0	0	0	0	2	44341,03	0,100000001	0,989598453	0,00027780723193370637	0,10001060330985002	9,89703403E-005	-0,028277357932160406	0,0010550662437609989	0,012779142105246166
1	1	0	0	0	0	2	44351,03	0,100000001	0,99574703	0,00027780712275620963	0,10001056400595128	9,95852242E-005	-0,027999550809404198	0,0010447008864953157	0,013056949228002378
1	1	0	0	0	0	2	44361,03	0,100000001	1,00332773	0,00027780694016483094	0,10001049827305507	0,000100343306	-0,02772174386923937	0,0010343355360423624	0,01333475616816721
1	1	0	0	0	0	2	44371,03	0,100000001	1,01247418	0,00027780703119022973	0,10001053104219858	0,000101258083	-0,027443936838049139	0,0010239701821931288	0,013612563199357437
1	1	0	0	0	0	2	44381,03	0,100000001	1,02288091	0,00027780694312726458	0,10001049933953117	0,000102298829	-0,027166129894921872	0,001013604831629643	0,013890370142484702
1	1	0	0	0	0	2	44391,03	0,100000001	1,03368866	0,00027780735352800954	0,10001064708379907	0,000103379869	-0,026888322541393862	0,0010032394657535536	0,01416817749601271
1	1	0	0	0	0	2	44401,03	0,100000001	1,04432452	0,00027780715806409715	0,10001057671679075	0,000104443498	-0,026610515383329766	0,0009928741071704855	0,014445984654076806
1	1	0	0	0	0	2	44411,03	0,100000001	1,05486488	0,00027780721054184771	0,10001059560878093	0,000105497667	-0,026332708172787917	0,00098250874662940224	0,014723791864618656
1	1	0	0	0	0	2	44421,03	0,100000001	1,0650425	0,00027780740480497478	0,10001066554350653	0,00010651561	-0,026054900767982941	0,0009721433788401001	0,015001599269423632
1	1	0	0	0	0	2	44431,03	0,100000001	1,07460904	0,00027780743751964637	0,10001067732078829	0,000107472377	-0,025777093330463293	0,00096177800983016986	0,015279406706943277
1	1	0	0	0	0	2	44441,03	0,100000001	1,08423281	0,00027780718546898829	0,10001058658255155	0,00010843476	-0,025499286144994304	0,00095141265022458842	0,015557213892412266
1	1	0	0	0	0	2	44451,03	0,100000001	1,09334111	0,00027780741298198698	0,10001066848723093	0,000109345776	-0,025221478732012317	0,00094104728213019123	0,015835021305394253
1	1	0	0	0	0	2	44461,03	0,100000001	1,10235393	0,00027780697295938928	0,10001051007909606	0,000110246976	-0,024943671759052928	0,0009306819304536288	0,016112828278353642
1	1	0	0	0	0	2	44471,03	0,100000001	1,11094666	0,00027780707191427552	0,10001054570285501	0,000111106383	-0,024665864687138653	0,00092031657508492646	0,016390635350267917
1	1	0	0	0	0	2	44481,03	0,100000001	1,11927199	0,00027780738875642416	0,10001065976602834	0,000111939131	-0,02438805729838223	0,00090995120789441754	0,016668442739024339
1	1	0	0	0	0	2	44491,03	0,100000001	1,12738729	0,00027780754333941472	0,10001071541590482	0,000112750808	-0,024110249755042816	0,00089958583493620954	0,016946250282363754
1	1	0	0	0	0	2	44501,03	0,100000001	1,13534987	0,00027780758905534941	0,1000107318736413	0,000113547168	-0,023832442165987466	0,0008892204602722784	0,017224057871419104
1	1	0	0	0	0	2	44511,03	0,100000001	1,14300692	0,00027780749001022845	0,10001069621739779	0,000114312919	-0,023554634675977238	0,00087885508930385395	0,017501865361429331
1	1	0	0	0	0	2	44521,03	0,100000001	1,15068316	0,00027780743601835437	0,10001067678032317	0,000115080606	-0,023276827239958883	0,00086848972034993882	0,017779672797447686
1	1	0	0	0	0	2	44531,03	0,100000001	1,15805376	0,00027780734422182042	0,10001064373357101	0,000115817704	-0,022999019895737062	0,00085812435482107597	0,018057480141669507
1	1	0	0	0	0	2	44541,03	0,100000001	1,16532886	0,00027780742918037709	0,10001067431865136	0,000116545329	-0,022721212466556688	0,00084775898612229504	0,018335287570849885
1	1	0	0	0	0	2	44551,03	0,100000001	1,17241311	0,00027780731653960218	0,10001063376797245	0,000117253781	-0,022443405150017085	0,00083739362162629286	0,018613094887389485
1	1	0	0	0	0	2	44561,03	0,100000001	1,17978382	0,0002778072173239456	0,10001059805033616	0,000117990887	-0,022165597932693139	0,00082702826083216026	0,01889090210471343
1	1	0	0	0	0	2	44571,03	0,100000001	1,18692529	0,00027780662271214858	0,10001038399008963	0,000118704855	-0,021887791309980992	0,00081666292222379328	0,019168708727425578
1	1	0	0	0	0	2	44581,03	0,100000001	1,19404769	0,00027780649936695898	0,10001033958582146	0,000119417113	-0,021609984810614032	0,00080629758821760115	0,019446515226792538
1	1	0	0	0	0	2	44591,03	0,100000001	1,20124638	0,00027780663266115722	0,10001038757173272	0,00012013712	-0,021332178177952874	0,00079593224923802317	0,019724321859453696
1	1	0	0	0	0	2	44601,03	0,100000001	1,20823514	0,00027780663832401238	0,10001038961036059	0,00012083607	-0,021054371539628861	0,00078556691004715648	0,020002128497777709
1	1	0	0	0	0	2	44611,03	0,100000001	1,21535754	0,00027780681460930243	0,10001045307306488	0,000121548459	-0,020776564725019558	0,00077520156427884864	0,020279935312387011
1	1	0	0	0	0	2	44621,03	0,100000001	1,22246087	0,00027780664685989418	0,10001039268327803	0,000122258789	-0,020498758078159664	0,00076483622476949683	0,020557741959246906
1	1	0	0	0	0	2	44631,03	0,100000001	1,2298888	0,00027780699977154531	0,10001051973147221	0,000123001824	-0,020220951078388118	0,0007544708720925367	0,020835548959018451
1	1	0	0	0	0	2	44641,03	0,100000001	1,23706853	0,00027780728830769661	0,10001062360448646	0,00012371999	-0,019943143790080426	0,00074410550864990502	0,021113356247326144
1	1	0	0	0	0	2	44651,03	0,100000001	1,24421	0,00027780725009615219	0,10001060984833053	0,000124434198	-0,019665336539984272	0,00073374014663299712	0,021391163497422298
1	1	0	0	0	0	2	44661,03	0,100000001	1,25142789	0,00027780710057748685	0,1000105560216111	0,000125156002	-0,019387529439406787	0,00072337479019483187	0,021668970597999786
1	1	0	0	0	0	2	44671,03	0,100000001	1,25891304	0,00027780710515752432	0,10001055767042458	0,000125904597	-0,019109722334249264	0,00071300943358577933	0,021946777703157309
1	1	0	0	0	0	2	44681,03	0,100000001	1,26613092	0,00027780706387137373	0,10001054280741038	0,000126626444	-0,018831915270377888	0,00070264407851716851	0,022224584767028682
1	1	0	0	0	0	2	44691,03	0,100000001	1,27355886	0,00027780730740725994	0,10001063048032926	0,000127369422	-0,018554107962970627	0,0006922787143619063	0,022502392074435942
1	1	0	0	0	0	2	44701,03	0,100000001	1,28102493	0,0002778073596623209	0,10001064929215117	0,000128116139	-0,018276300603308304	0,00068191334825693747	0,022780199434098266
1	1	0	0	0	0	2	44711,03	0,100000001	1,28847194	0,0002778074220849408	0,10001067176429429	0,000128860949	-0,017998493181223363	0,00067154797982289677	0,023058006856183206
1	1	0	0	0	0	2	44721,03	0,100000001	1,29599535	0,00027780746513480938	0,10001068726224696	0,000129613385	-0,017720685716088554	0,00066118260978260749	0,023335814321318016
1	1	0	0	0	0	2	44731,03	0,100000001	1,30361426	0,00027780735072121024	0,10001064607335134	0,000130375309	-0,017442878365367344	0,00065081724401124352	0,023613621672039229
1	1	0	0	0	0	2	44741,03	0,100000001	1,31121397	0,00027780760342544979	0,10001073704687741	0,000131135472	-0,017165070761941891	0,00064045186881114483	0,023891429275464678
1	1	0	0	0	0	2	44751,03	0,100000001	1,31879473	0,00027780750300155747	0,10001070089427626	0,000131893583	-0,016887263258940333	0,00063008649735799629	0,024169236778466237
1	1	0	0	0	0	2	44761,03	0,100000001	1,3264327	0,00027780727056910595	0,10001061721859384	0,000132657355	-0,016609455988371229	0,0006197211345772151	0,024447044049035344
1	1	0	0	0	0	2	44771,03	0,100000001	1,33408976	0,00027780730067110723	0,1000106280553143	0,000133423149	-0,016331648687700118	0,00060935577067328781	0,024724851349706451
1	1	0	0	0	0	2	44781,03	0,100000001	1,34174681	0,00027780731589305728	0,1000106335352163	0,000134188944	-0,016053841371807062	0,00059899040620140902	0,025002658665599507
1	1	0	0	0	0	2	44791,03	0,100000001	1,34955657	0,00027780766753231482	0,10001076012534877	0,000134970178	-0,015776033704274749	0,00058862502860939686	0,025280466333131821
1	1	0	0	0	0	2	44801,03	0,100000001	1,35723269	0,00027780729194192429	0,10001062491280843	0,00013573769	-0,015498226412332826	0,00057825966503116723	0,025558273625073747
1	1	0	0	0	0	2	44811,03	0,100000001	1,36487067	0,0002778074293409785	0,10001067437646787	0,000136501636	-0,015220418982991846	0,00056789429632639398	0,025836081054414723
1	1	0	0	0	0	2	44821,03	0,100000001	1,37189758	0,00027780713746613926	0,10001056930152592	0,000137204261	-0,014942611845525706	0,00055752893851186342	0,026113888191880864
1	1	0	0	0	0	2	44831,03	0,100000001	1,37506735	0,00027780719988544781	0,10001059177247696	0,000137521303	-0,014664804645640259	0,00054716357836838458	0,02639169539176631
1	1	0	0	0	0	2	44841,03	0,100000001	1,37355888	0,00027780731807773312	0,10001063432169962	0,000137370502	-0,014386997327562525	0,0005367982138149927	0,026669502709844042
1	1	0	0	0	0	2	44851,03	0,100000001	1,37149668	0,00027780753535032275	0,10001071253983171	0,000137164359	-0,014109189792212202	0,00052643284115486835	0,026947310245194365
1	1	0	0	0	0	2	44861,03	0,100000001	1,37046552	0,00027780770454059046	0,10001077344832798	0,000137061317	-0,013831382087671611	0,00051606746218202758	0,027225117949734954
1	1	0	0	0	0	2	44871,03	0,100000001	1,37059915	0,00027780789849037923	0,10001084327025181	0,000137074778	-0,013553574189181232	0,00050570207597265952	0,027502925848225334
1	1	0	0	0	0	2	44881,03	0,100000001	1,37142026	0,00027780763618482486	0,10001074884025242	0,000137156763	-0,013275766552996406	0,00049533669955026426	0,02778073348441016
1	1	0	0	0	0	2	44891,03	0,100000001	1,37294781	0,0002778072107926839	0,10001059569908195	0,000137309326	-0,012997959342203725	0,00048497133899982189	0,028058540695202842
1	1	0	0	0	0	2	44901,03	0,100000001	1,37512469	0,00027780754338991312	0,10001071543408424	0,000137527211	-0,012720151798813811	0,0004746059660397296	0,028336348238592758
1	1	0	0	0	0	2	44911,03	0,100000001	1,37831354	0,00027780743269001443	0,1000106755821208	0,000137846073	-0,012442344366123797	0,00046424059720999942	0,028614155671282771
1	1	0	0	0	0	2	44921,03	0,100000001	1,38192248	0,00027780726941426595	0,10001061680285144	0,000138206917	-0,01216453709670953	0,00045387523447230688	0,028891962940697037
1	1	0	0	0	0	2	44931,03	0,100000001	1,38679159	0,00027780752038252019	0,10001070715142282	0,000138694013	-0,011886729576327011	0,00044350986237065139	0,029169770461079558
1	1	0	0	0	0	2	44941,03	0,100000001	1,39248192	0,0002778080933321681	0,10001091341329568	0,000139263386	-0,011608921482994845	0,00043314446889147418	0,029447578554411725
1	1	0	0	0	0	2	44951,03	0,100000001	1,39924157	0,00027780789734588723	0,10001084285823472	0,000139939322	-0,011331113585648957	0,00042277908272480864	0,029725386451757613
1	1	0	0	0	0	2	44961,03	0,100000001	1,40720415	0,00027780807216175725	0,10001090579194778	0,000140735763	-0,0110533055134872	0,00041241369003552794	0,030003194523919373
1	1	0	0	0	0	2	44971,03	0,100000001	1,41577768	0,00027780769180051155	0,10001076886189958	0,000141593016	-0,01077549782168669	0,00040204831153803667	0,030281002215719878
1	1	0	0	0	0	2	44981,03	0,100000001	1,42519152	0,00027780762586784032	0,10001074512613798	0,000142534467	-0,01049769019581885	0,00039168293550058208	0,030558809841587725
1	1	0	0	0	0	2	44991,03	0,100000001	1,43512082	0,00027780831308869853	0,10001099252564646	0,000143527854	-0,010219881882730152	0,00038131753382199328	0,030836618154676422
1	1	0	0	0	0	2	45001,03	0,100000001	1,44579494	0,00027780756051672832	0,10001072159973771	0,000144594989	-0,0099420743222134234	0,00037095216022287648	0,031114425715193152
1	1	0	0	0	0	2	45011,03	0,100000001	1,45792019	0,0002778078883865641	0,10001083963287837	0,000145807819	-0,0096642664338268595	0,00036058677439049536	0,031392233603579712
1	1	0	0	0	0	2	45021,03	0,100000001	1,47201216	0,00027780790444670451	0,10001084541452893	0,000147217186	-0,0093864585293801549	0,0003502213879588887	0,031670041508026413
1	1	0	0	0	0	2	45031,03	0,100000001	1,48982775	0,00027780776935815811	0,10001079678265229	0,000148998864	-0,0091086507600219955	0,00033985600656761741	0,031947849277384576
1	1	0	0	0	0	2	45041,03	0,100000001	1,51770627	0,00027780788438022138	0,10001083819059499	0,00015178707	-0,0088308428756417741	0,00032949062088471827	0,032225657161764794
1	1	0	0	0	0	2	45051,03	0,100000001	1,59639645	0,00027780787486665776	0,10001083476571211	0,000159656935	-0,0085530350007751168	0,00031912523555678291	0,03250346503663145
1	1	0	0	0	0	2	45061,03	0,100000001	1,8090564	0,00027780795045610931	0,10001086197791459	0,000180925286	-0,0082752270503190067	0,00030875984740850362	0,032781272987087558
1	1	0	0	0	0	2	45071,03	0,100000001	2,05402493	0,00027780842776596544	0,10001103380946248	0,000205425153	-0,0079974186225530419	0,00029839444145115174	0,033059081414853523
1	1	0	0	0	0	2	45081,03	0,100000001	2,26115394	0,00027780818619082371	0,10001094684241163	0,000226140153	-0,007719610436362217	0,00028802904450729318	0,033336889601044346
1	1	0	0	0	0	2	45091,03	0,100000001	2,43965316	0,0002778083450264401	0,10001100402323342	0,000243992166	-0,0074418020913357773	0,00027766364163706426	0,03361469794607079
1	1	0	0	0	0	2	45101,03	0,100000001	2,59367251	0,00027780859172509773	0,10001109283475002	0,000259396009	-0,007163993499610679	0,0002672982295621768	0,033892506537795885
1	1	0	0	0	0	2	45111,03	0,100000001	2,73033476	0,00027780846586492323	0,10001104752508726	0,000273063633	-0,0068861850337457562	0,0002569328221833016	0,034170315003660806
1	1	0	0	0	0	2	45121,03	0,100000001	2,85204577	0,00027780836778548029	0,10001101221648789	0,00028523599	-0,0066083766659602765	0,0002465674184639023	0,034448123371446285
1	1	0	0	0	0	2	45131,03	0,100000001	2,96166968	0,00027780815645017562	0,10001093613577834	0,000296199345	-0,0063305685095101005	0,00023620202262970736	0,034725931527896467
1	1	0	0	0	0	2	45141,03	0,100000001	3,06157422	0,00027780834802819622	0,10001100510386563	0,000306191127	-0,0060527601614819046	0,00022583661964747888	0,035003739875924659
1	1	0	0	0	0	2	45151,03	0,100000001	3,15246606	0,00027780829926166269	0,10001098754791358	0,000315281242	-0,0057749518622202419	0,00021547121848479533	0,035281548175186317
1	1	0	0	0	0	2	45161,03	0,100000001	3,23529959	0,0002778082484789193	0,100010969266126	0,000323565444	-0,0054971436137413229	0,00020510581921688426	0,035559356423665242
1	1	0	0	0	0	2	45171,03	0,100000001	3,30891061	0,00027780765616231494	0,10001075603214883	0,000330926647	-0,005219335957579008	0,00019474044204910205	0,035837164079827558
1	1	0	0	0	0	2	45181,03	0,100000001	3,37400508	0,00027780787749505702	0,10001083571193584	0,000337437057	-0,0049415280800839507	0,00018437505662309763	0,036114971957322611
1	1	0	0	0	0	2	45191,03	0,100000001	3,43245459	0,00027780780947167011	0,10001081122351658	0,000343282562	-0,0046637202706122803	0,00017400967373513728	0,036392779766794278
1	1	0	0	0	0	2	45201,03	0,100000001	3,48557663	0,00027780762519232102	0,10001074488295104	0,000348595117	-0,004385912645419959	0,00016364429772288714	0,036670587391986598
1	1	0	0	0	0	2	45211,03	0,100000001	3,53482246	0,0002778079268468751	0,1000108534785903	0,00035352062	-0,0041081047185730842	0,00015327891045550006	0,036948395318833478
1	1	0	0	0	0	2	45221,03	0,100000001	3,58084106	0,00027780827946505613	0,10001098042113522	0,00035812342	-0,0038302964391080282	0,00014291351003145453	0,037226203598298528
1	1	0	0	0	0	2	45231,03	0,100000001	3,62498856	0,00027780823889623082	0,10001096581635816	0,000362538616	-0,0035524882002117971	0,00013254811112108642	0,037504011837194765
1	1	0	0	0	0	2	45241,03	0,100000001	3,66844845	0,00027780781817891533	0,10001081435812486	0,000366884517	-0,0032746803820328819	0,00012218272790824701	0,037781819655373683
1	1	0	0	0	0	2	45251,03	0,100000001	3,71156478	0,00027780769824609162	0,1000107711823084	0,000371196453	-0,0029968726837867898	0,0001118173491702625	0,03805962735361977
1	1	0	0	0	0	2	45261,03	0,100000001	3,75428009	0,00027780778832029965	0,10001080360902323	0,000375468575	-0,0027190648954664902	0,00010145196707148818	0,038337435141940077
1	1	0	0	0	0	2	45271,03	0,100000001	3,79554415	0,00027780852919237482	0,10001107032296979	0,000379596429	-0,0024412563662741152	9,1086557329780634E-005	0,038615243671132448
1	1	0	0	0	0	2	45281,03	0,100000001	3,83495617	0,00027780846107378602	0,10001104580027787	0,00038353799	-0,0021634479052003293	8,0721150129669222E-005	0,038893052132206234
1	1	0	0	0	0	2	45291,03	0,100000001	3,87242031	0,00027780807564614547	0,10001090704632754	0,000387284264	-0,001885639829554184	7,0355757310381286E-005	0,039170860207852384
1	1	0	0	0	0	2	45301,03	0,100000001	3,9083569	0,0002778082619172831	0,10001097410393696	0,000390878587	-0,0016078315676369008	5,9990357541066778E-005	0,039448668469769664
1	1	0	0	0	0	2	45311,03	0,100000001	3,942384	0,00027780851354284419	0,10001106468913878	0,000394282019	-0,0013300230540940566	4,9624948383264262E-005	0,039726476983312512
1	1	0	0	0	0	2	45321,03	0,100000001	3,9750936	0,00027780831631893914	0,10001099368853309	0,000397553056	-0,0010522147377751176	3,9259546584150803E-005	0,04000428529963145
1	1	0	0	0	0	2	45331,03	0,100000001	4,00663853	0,00027780808661050266	0,10001091099349613	0,000400707562	-0,00077440665116461491	2,8894153355767962E-005	0,040282093386241952
1	1	0	0	0	0	2	45341,03	0,100000001	4,03711414	0,00027780825062096122	0,10001097003726109	0,000403755694	-0,0004965984005436537	1,8528754007934397E-005	0,040559901636862912
1	1	0	0	0	0	2	45351,03	0,100000001	4,06705475	0,00027780846491166288	0,10001104718191355	0,000406750391	-0,00021878993563199082	8,1633466646266394E-006	0,040837710101774573
1	1	0	0	0	0	2	45361,03	0,100000001	4,09646082	0,00027780862694482006	0,10001110551385002	0,000409691565	5,9018691312829235E-005	-2,202066724356071E-006	0,041115518728719392
1	1	0	0	0	0	2	45371,03	0,100000001	4,12447309	0,00027780851965563162	0,10001106688974224	0,000412492955	0,00033682721096846086	-1,2567476110234909E-005	0,041393327248375021
1	1	0	0	0	0	2	45381,03	0,100000001	4,15105343	0,00027780814221791101	0,10001093101216307	0,000415150716	0,00061463535318637184	-2,2932871413404918E-005	0,041671135390592928
1	1	0	0	0	0	2	45391,03	0,100000001	4,17560959	0,00027780790164073309	0,1000108444043792	0,000417606236	0,0008924432548271049	-3,329825774031696E-005	0,041948943292233664
1	1	0	0	0	0	2	45401,03	0,100000001	4,19776678	0,00027780792511213158	0,10001085285408264	0,00041982223	0,0011702511799392363	-4,3663644942978438E-005	0,042226751217345792
1	1	0	0	0	0	2	45402,09	0,100000001	4,20005798	2,9514360639784077E-005	0,10001101101275267	0,000420052034	0,0011997655405790205	-4,4764865420928704E-005	0,042256265577985574