EC-Lab ASCII FILE
Nb header lines : 3                           
mode	ox/red	error	control changes	Ns changes	counter inc.	Ns	time/s	control/V/mA	Ewe/V	dq/mA.h	<I>/mA	P/W	(Q-Qo)/mA.h	x	Capacity/mA.h
1	0	0	1	1	0	1	27211,10	-0,100000001	4,18833399	0	0	0	0	0	0
1	0	0	1	0	0	1	27221,10	-0,100000001	3,78567958	-0,0002763631419016537	-0,099490732288859328	0,000376640033	-0,0002763631419016537	1,0311480398546862E-005	0,0002763631419016537
1	0	0	1	0	0	1	27231,10	-0,100000001	3,44806242	-0,00027773735439197882	-0,099985448791655552	0,000344756059	-0,00055410049629363258	2,0674234512756102E-005	0,00055410049629363258
1	0	0	1	0	0	1	27241,10	-0,100000001	3,12430835	-0,00027773758992387187	-0,099985533583138061	0,000312385644	-0,00083183808621750438	3,1036997414976947E-005	0,00083183808621750438
1	0	0	1	0	0	1	27251,10	-0,100000001	2,82413626	-0,00027773762117367654	-0,099985544833067891	0,000282372814	-0,0011095757073911811	4,1399761483170016E-005	0,0011095757073911811
1	0	0	1	0	0	1	27261,10	-0,100000001	2,5245564	-0,00027773772689700125	-0,099985582893465254	0,000252419239	-0,0013873134342881822	5,1762529496042483E-005	0,0013873134342881822
1	0	0	1	0	0	1	27271,10	-0,100000001	2,26307082	-0,00027773772034338778	-0,099985580534164365	0,000226274453	-0,0016650511546315699	6,2125297264390797E-005	0,0016650511546315699
1	0	0	1	0	0	1	27281,10	-0,100000001	2,04798579	-0,00027773771044984458	-0,099985576972488781	0,000204769036	-0,0019427888650814144	7,2488064663597734E-005	0,0019427888650814144
1	0	0	1	0	0	1	27291,10	-0,100000001	1,86633575	-0,00027773737132259539	-0,099985454886677594	0,000186606427	-0,0022205262364040096	8,285081940951104E-005	0,0022205262364040096
1	0	0	1	0	0	1	27301,10	-0,100000001	1,71803737	-0,0002777378018018272	-0,099985609859202918	0,000171779015	-0,0024982640382058371	9,3213590217183258E-005	0,0024982640382058371
1	0	0	1	0	0	1	27311,10	-0,100000001	1,60394537	-0,00027773774550772378	-0,099985589593325427	0,000160371419	-0,0027760017837135606	0,00010357635892444682	0,0027760017837135606
1	0	0	1	0	0	1	27321,10	-0,100000001	1,52754664	-0,00027773777255415917	-0,099985599330042291	0,000152732668	-0,0030537395562677203	0,00011393912864084923	0,0030537395562677203
1	0	0	1	0	0	1	27331,10	-0,100000001	1,48920405	-0,00027773766904655427	-0,099985562067304077	0,000148898907	-0,0033314772253142746	0,00012430189449524374	0,0033314772253142746
1	0	0	1	0	0	1	27341,10	-0,100000001	1,46688211	-0,00027773735834699536	-0,09998545021546153	0,000146666862	-0,0036092145836612698	0,00013466464875701995	0,0036092145836612698
1	0	0	1	0	0	1	27351,10	-0,100000001	1,45084238	-0,00027773766707132262	-0,099985561356220685	0,000145063284	-0,0038869522507325926	0,0001450274145377159	0,0038869522507325926
1	0	0	1	0	0	1	27361,10	-0,100000001	1,43764782	-0,00027773813964012598	-0,099985731480991962	0,00014374427	-0,0041646903903727187	0,00015539019795058931	0,0041646903903727187
1	0	0	1	0	0	1	27371,10	-0,100000001	1,42620993	-0,00027773804497553245	-0,099985697401737869	0,000142600591	-0,0044424284353482515	0,00016575297783139946	0,0044424284353482515
1	0	0	1	0	0	1	27381,10	-0,100000001	1,41589868	-0,00027773809891194106	-0,099985716818845197	0,000141569646	-0,004720166534260192	0,00017611575972464947	0,004720166534260192
1	0	0	1	0	0	1	27391,10	-0,100000001	1,40637028	-0,00027773806192436157	-0,099985703503316429	0,000140616918	-0,0049979045961845542	0,0001864785402378432	0,0049979045961845542
1	0	0	1	0	0	1	27401,10	-0,100000001	1,39733839	-0,00027773778903070422	-0,099985605261598592	0,000139713724	-0,0052756423852152589	0,00019684131056900768	0,0052756423852152589
1	0	0	1	0	0	1	27411,10	-0,100000001	1,38874578	-0,00027773754685206544	-0,099985518077287565	0,000138854462	-0,0055533799320673242	0,0002072040718641615	0,0055533799320673242
1	0	0	1	0	0	1	27421,10	-0,100000001	1,38036311	-0,00027773779129692246	-0,099985606077437171	0,000138016447	-0,0058311177233642458	0,00021756684227988163	0,0058311177233642458
1	0	0	1	0	0	1	27431,10	-0,100000001	1,37226677	-0,00027773773583687014	-0,099985586111818086	0,000137206895	-0,0061088554592011162	0,00022792961062631261	0,0061088554592011162
1	0	0	1	0	0	1	27441,10	-0,100000001	1,3643806	-0,00027773778311080403	-0,099985603130434509	0,000136418414	-0,0063865932423119194	0,0002382923807365976	0,0063865932423119194
1	0	0	1	0	0	1	27451,10	-0,100000001	1,35670447	-0,00027773744669970541	-0,09998548202243753	0,000135650756	-0,006664330689011625	0,00024865513829493222	0,006664330689011625
1	0	0	1	0	0	1	27461,10	-0,100000001	1,34914291	-0,00027773744302449952	-0,099985480699363392	0,000134894697	-0,0069420681320361242	0,00025901789571614	0,0069420681320361242
1	0	0	1	0	0	1	27471,10	-0,100000001	1,34167683	-0,00027773761669794717	-0,099985543221805312	0,000134148286	-0,007219805748734071	0,00026938065961733754	0,007219805748734071
1	0	0	1	0	0	1	27481,10	-0,100000001	1,33428705	-0,00027773743769733443	-0,099985478781583936	0,000133409325	-0,0074975431864314061	0,0002797434168397816	0,0074975431864314061
1	0	0	1	0	0	1	27491,10	-0,100000001	1,32703102	-0,00027773701579123738	-0,099985326895387149	0,000132683635	-0,0077752802022226432	0,00029010615832034189	0,0077752802022226432
1	0	0	1	0	0	1	27501,10	-0,100000001	1,32132161	-0,00027773693146432438	-0,099985296537698112	0,000132112735	-0,008053017133686967	0,00030046889665455174	0,008053017133686967
1	0	0	1	0	0	1	27511,10	-0,100000001	1,31786549	-0,00027773712954546016	-0,099985367846907853	0,000131767272	-0,0083307542632324262	0,00031083164237943501	0,0083307542632324262
1	0	0	1	0	0	1	27521,10	-0,100000001	1,31582224	-0,00027773755484281315	-0,099985520953956787	0,000131563167	-0,0086084918180752384	0,00032119440397273434	0,0086084918180752384
1	0	0	1	0	0	1	27531,10	-0,100000001	1,31389368	-0,00027773794606203834	-0,099985661792879552	0,000131370529	-0,0088862297641372762	0,00033155718016294899	0,0088862297641372762
1	0	0	1	0	0	1	27541,10	-0,100000001	1,31139231	-0,00027773802069450419	-0,09998568866056759	0,000131120469	-0,0091639677848317811	0,00034191995913780134	0,0091639677848317811
1	0	0	1	0	0	1	27551,10	-0,100000001	1,30835617	-0,00027773758316785098	-0,099985531150970534	0,000130816683	-0,0094417053679996326	0,00035228272178794598	0,0094417053679996326
1	0	0	1	0	0	1	27561,10	-0,100000001	1,30503368	-0,00027773760677708518	-0,099985539650294938	0,000130484492	-0,0097194429747767181	0,00036264548531898285	0,0097194429747767181
1	0	0	1	0	0	1	27571,10	-0,100000001	1,30115736	-0,00027773738623782992	-0,099985460256162086	0,000130096814	-0,0099971803610145472	0,00037300824062140365	0,0099971803610145472
1	0	0	1	0	0	1	27581,10	-0,100000001	1,29642189	-0,00027773726993302506	-0,099985418386431821	0,00012962328	-0,010274917630947574	0,00038337099158433574	0,010274917630947574
1	0	0	1	0	0	1	27591,10	-0,100000001	1,29109442	-0,00027773757914743488	-0,09998552970362071	0,000129090753	-0,010552655210095008	0,00039373375408447328	0,010552655210095008
1	0	0	1	0	0	1	27601,10	-0,100000001	1,28553772	-0,0002777379178495871	-0,099985651636396979	0,000128535321	-0,010830393127944595	0,00040409652922204339	0,010830393127944595
1	0	0	1	0	0	1	27611,10	-0,100000001	1,2795229	-0,0002777374843863977	-0,099985495589646925	0,00012793373	-0,011108130612330992	0,00041445928818651917	0,011108130612330992
1	0	0	1	0	0	1	27621,10	-0,100000001	1,27324069	-0,00027773745031944582	-0,099985483325544077	0,000127305582	-0,011385868062650437	0,00042482204587991117	0,011385868062650437
1	0	0	1	0	0	1	27631,10	-0,100000001	1,26695836	-0,00027773767282234301	-0,099985563426588045	0,000126677551	-0,011663605735472781	0,00043518481187518541	0,011663605735472781
1	0	0	1	0	0	1	27641,10	-0,100000001	1,26042795	-0,00027773746084546048	-0,099985487114909414	0,000126024504	-0,011941343196318242	0,00044554756996131718	0,011941343196318242
1	0	0	1	0	0	1	27651,10	-0,100000001	1,25385928	-0,0002777376377388007	-0,099985550796512653	0,000125367806	-0,012219080834057042	0,00045591033464757734	0,012219080834057042
1	0	0	1	0	0	1	27661,10	-0,100000001	1,24736702	-0,00027773765732141005	-0,099985557846252109	0,000124718688	-0,012496818491378453	0,00046627310006449094	0,012496818491378453
1	0	0	1	0	0	1	27671,10	-0,100000001	1,24081743	-0,00027773781527827184	-0,099985614710723034	0,000124063896	-0,012774556306656725	0,00047663587137498746	0,012774556306656725
1	0	0	1	0	0	1	27681,10	-0,100000001	1,23415339	-0,00027773807372152803	-0,099985707750296397	0,000123397695	-0,013052294380378253	0,00048699865232834931	0,013052294380378253
1	0	0	1	0	0	1	27691,10	-0,100000001	1,22743201	-0,00027773811629911267	-0,099985723078227059	0,000122725673	-0,013330032496677366	0,00049736143487033805	0,013330032496677366
1	0	0	1	0	0	1	27701,10	-0,100000001	1,22053874	-0,00027773794124937722	-0,099985660060321523	0,00012203637	-0,013607770437926741	0,00050772421088098592	0,013607770437926741
1	0	0	1	0	0	1	27711,10	-0,100000001	1,21387458	-0,00027773753534671331	-0,099985513935360755	0,000121369871	-0,013885507973273454	0,00051808697174685958	0,013885507973273454
1	0	0	1	0	0	1	27721,10	-0,100000001	1,20696223	-0,00027773769832278291	-0,099985572606746522	0,000120678807	-0,01416324567159624	0,00052844973869358957	0,01416324567159624
1	0	0	1	0	0	1	27731,10	-0,100000001	1,19997346	-0,00027773799848142598	-0,099985680663859328	0,000119980163	-0,014440983670077664	0,00053881251683964211	0,014440983670077664
1	0	0	1	0	0	1	27741,10	-0,100000001	1,19300389	-0,00027773812780405085	-0,099985727220004864	0,000119283359	-0,014718721797881715	0,00054917529981089555	0,014718721797881715
1	0	0	1	0	0	1	27751,10	-0,100000001	1,18580508	-0,00027773813649225568	-0,099985730347758618	0,000118563585	-0,014996459934373971	0,00055953808310631776	0,014996459934373971
1	0	0	1	0	0	1	27761,10	-0,100000001	1,17860627	-0,00027773849044947158	-0,099985857772357901	0,000117843956	-0,015274198424823443	0,00056990087960835949	0,015274198424823443
1	0	0	1	0	0	1	27771,10	-0,100000001	1,17123568	-0,00027773820280490653	-0,099985754220313216	0,00011710688	-0,015551936627628352	0,00058026366537799578	0,015551936627628352
1	0	0	1	0	0	1	27781,10	-0,100000001	1,16382682	-0,00027773771415361098	-0,099985578305844698	0,000116365896	-0,015829674341781962	0,0005906264329153952	0,015829674341781962
1	0	0	1	0	0	1	27791,10	-0,100000001	1,15626526	-0,00027773785827267501	-0,099985630188708378	0,00011560991	-0,016107412200054637	0,00060098920583007066	0,016107412200054637
1	0	0	1	0	0	1	27801,10	-0,100000001	1,14839816	-0,0002777377307539185	-0,099985584281955482	0,000114823262	-0,016385149930808557	0,00061135197398684992	0,016385149930808557
1	0	0	1	0	0	1	27811,10	-0,100000001	1,14039743	-0,00027773757302264371	-0,099985527498695872	0,000114023242	-0,0166628875038312	0,00062171473625846323	0,0166628875038312
1	0	0	1	0	0	1	27821,10	-0,100000001	1,13233936	-0,00027773764817416669	-0,099985554553244454	0,000113217582	-0,016940625152005366	0,0006320775013340809	0,016940625152005366
1	0	0	1	0	0	1	27831,10	-0,100000001	1,12410939	-0,00027773782390728589	-0,099985617817168141	0,000112394773	-0,017218362975912653	0,0006424402729665376	0,017218362975912653
1	0	0	1	0	0	1	27841,10	-0,100000001	1,11551666	-0,00027773765496909616	-0,09998555699941911	0,000111535555	-0,01749610063088175	0,0006528030382956832	0,01749610063088175
1	0	0	1	0	0	1	27851,10	-0,100000001	1,10680938	-0,00027773763601730269	-0,099985550176773363	0,000110664943	-0,017773838266899053	0,00066316580291771187	0,017773838266899053
1	0	0	1	0	0	1	27861,10	-0,100000001	1,09798753	-0,00027773771780273978	-0,099985579619531072	0,000109782923	-0,018051575984701792	0,00067352857059126528	0,018051575984701792
1	0	0	1	0	0	1	27871,10	-0,100000001	1,08884108	-0,00027773798169154259	-0,099985674619501235	0,000108868509	-0,018329313966393338	0,00068389134811086464	0,018329313966393338
1	0	0	1	0	0	1	27881,10	-0,100000001	1,07950366	-0,00027773814175443514	-0,099985732242143258	0,00010793496	-0,01860705210814777	0,00069425413160262579	0,01860705210814777
1	0	0	1	0	0	1	27891,10	-0,100000001	1,0700326	-0,00027773817315573494	-0,099985743546611328	0,000106988002	-0,018884790281303507	0,00070461691626601152	0,018884790281303507
1	0	0	1	0	0	1	27901,10	-0,100000001	1,06029427	-0,00027773787645333344	-0,099985636733745485	0,000106014195	-0,019162528157756842	0,00071497968985903194	0,019162528157756842
1	0	0	1	0	0	1	27911,10	-0,100000001	1,05030763	-0,00027773817135641974	-0,099985742898857856	0,000105015788	-0,019440266329113258	0,00072534247445528282	0,019440266329113258
1	0	0	1	0	0	1	27921,10	-0,100000001	1,04053104	-0,0002777378819266127	-0,099985638704126042	0,000104038161	-0,019718004211039869	0,00073570524825251853	0,019718004211039869
1	0	0	1	0	0	1	27931,10	-0,100000001	1,03058255	-0,00027773814271224867	-0,099985732586956134	0,000103043552	-0,019995742353752118	0,0007460680317800169	0,019995742353752118
1	0	0	1	0	0	1	27941,10	-0,100000001	1,02061498	-0,00027773823751260835	-0,099985766715086016	0,000102046972	-0,02027348059126473	0,00075643081884464422	0,02027348059126473
1	0	0	1	0	0	1	27951,10	-0,100000001	1,01114392	-0,00027773781022139722	-0,099985612890248154	0,000101099846	-0,020551218401486125	0,00076679358996646182	0,020551218401486125
1	0	0	1	0	0	1	27961,10	-0,100000001	1,00203562	-0,00027773769002200829	-0,099985569618467622	0,0001001891	-0,020828956091508134	0,00077715635660347878	0,020828956091508134
1	0	0	1	0	0	1	27971,10	-0,100000001	0,993672073	-0,00027773899699126682	-0,099986040127406374	9,93533322E-005	-0,021106695088499402	0,00078751917200527603	0,021106695088499402
1	0	0	1	0	0	1	27981,10	-0,100000001	0,986091375	-0,0002777391461436119	-0,099986093822251264	9,85954248E-005	-0,021384434234643014	0,00079788199297214771	0,021384434234643014
1	0	0	1	0	0	1	27991,10	-0,100000001	0,979217231	-0,0002777394756335351	-0,09998621243862505	9,79082251E-005	-0,02166217371027655	0,00080824482623273152	0,02166217371027655
1	0	0	1	0	0	1	28001,10	-0,100000001	0,973202348	-0,0002777393377568159	-0,09998616280300553	9,73067654E-005	-0,021939913048033363	0,00081860765434894938	0,021939913048033363
1	0	0	1	0	0	1	28011,10	-0,100000001	0,967913032	-0,00027773995882396893	-0,099986386387183347	9,67781234E-005	-0,022217653006857331	0,00082897050563801779	0,022217653006857331
1	0	0	1	0	0	1	28021,10	-0,100000001	0,963158429	-0,00027774016988774141	-0,099986462370142362	9,63028069E-005	-0,022495393176745072	0,00083933336480215949	0,022495393176745072
1	0	0	1	0	0	1	28031,10	-0,100000001	0,959014833	-0,00027773986179257437	-0,09998635145588087	9,58883975E-005	-0,022773133038537645	0,00084969621247085606	0,022773133038537645
1	0	0	1	0	0	1	28041,10	-0,100000001	0,955176771	-0,00027773958087588352	-0,09998625032587095	9,55045471E-005	-0,02305087261941353	0,00086005904965817344	0,02305087261941353
1	0	0	1	0	0	1	28051,10	-0,100000001	0,951854229	-0,00027773925868007872	-0,099986134335379814	9,5172225E-005	-0,02332861187809361	0,00087042187482393203	0,02332861187809361
1	0	0	1	0	0	1	28061,10	-0,100000001	0,948989987	-0,00027773947963656653	-0,099986213879716378	9,4885916E-005	-0,023606351357730176	0,00088078470823387418	0,023606351357730176
1	0	0	1	0	0	1	28071,10	-0,100000001	0,946221232	-0,0002777398206334975	-0,099986336638613018	9,46091968E-005	-0,023884091178363674	0,0008911475543668704	0,023884091178363674
1	0	0	1	0	0	1	28081,10	-0,100000001	0,943929851	-0,00027773994413101008	-0,09998638109771808	9,43801278E-005	-0,024161831122494682	0,0009015104051077248	0,024161831122494682
1	0	0	1	0	0	1	28091,10	-0,100000001	0,941791236	-0,0002777399470669528	-0,099986382154657485	9,4166302E-005	-0,024439571069561635	0,00091187325595812314	0,024439571069561635
1	0	0	1	0	0	1	28101,10	-0,100000001	0,939767182	-0,00027774013280868534	-0,09998644902168201	9,39639867E-005	-0,02471731120237032	0,00092223611373879539	0,02471731120237032
1	0	0	1	0	0	1	28111,10	-0,100000001	0,937972248	-0,00027774000801559952	-0,099986404096170573	9,37844743E-005	-0,02499505121038592	0,00093259896686326976	0,02499505121038592
1	0	0	1	0	0	1	28121,10	-0,100000001	0,93615824	-0,0002777398356869817	-0,099986342057867392	9,3603041E-005	-0,025272791046072902	0,00094296181355793178	0,025272791046072902
1	0	0	1	0	0	1	28131,10	-0,100000001	0,934592426	-0,00027773929100359482	-0,099986145971845747	9,34462951E-005	-0,025550530337076496	0,00095332463992972403	0,025550530337076496
1	0	0	1	0	0	1	28141,10	-0,100000001	0,932721138	-0,00027773930475074384	-0,099986150920819456	9,32591938E-005	-0,025828269641827242	0,00096368746681444122	0,025828269641827242
1	0	0	1	0	0	1	28151,10	-0,100000001	0,931289017	-0,00027773978826858934	-0,099986324987245952	9,3116163E-005	-0,02610600943009583	0,0009740503117398592	0,02610600943009583
1	0	0	1	0	0	1	28161,10	-0,100000001	0,929551363	-0,0002777402496085399	-0,099986491069630157	9,29425805E-005	-0,026383749679704371	0,00098441317387849101	0,026383749679704371
1	0	0	1	0	0	1	28171,10	-0,100000001	0,927890122	-0,0002777401248601576	-0,099986446160211994	9,2776434E-005	-0,026661489804564531	0,00099477603136259277	0,026661489804564531
1	0	0	1	0	0	1	28181,10	-0,100000001	0,926190674	-0,00027774015241654381	-0,09998645608051113	9,26065259E-005	-0,026939229956981072	0,0010051388898748606	0,026939229956981072
1	0	0	1	0	0	1	28191,10	-0,100000001	0,924414873	-0,0002777400946352217	-0,099986435279234931	9,24289488E-005	-0,027216970051616294	0,0010155017462312296	0,027216970051616294
1	0	0	1	0	0	1	28201,10	-0,100000001	0,922677219	-0,00027774012480179472	-0,099986446139201357	9,22552135E-005	-0,02749471017641809	0,0010258646037131539	0,02749471017641809
1	0	0	1	0	0	1	28211,10	-0,100000001	0,920710444	-0,00027774000738147229	-0,099986403867884749	9,20585298E-005	-0,027772450183799562	0,0010362274568139682	0,027772450183799562
1	0	0	1	0	0	1	28221,10	-0,100000001	0,918705463	-0,00027773984778341318	-0,099986346412582797	9,18580045E-005	-0,028050190031582976	0,0010465903039599642	0,028050190031582976
1	0	0	1	0	0	1	28231,10	-0,100000001	0,916719615	-0,00027773975335268512	-0,099986312417520282	9,16594145E-005	-0,028327929784935661	0,0010569531475826229	0,028327929784935661
1	0	0	1	0	0	1	28241,10	-0,100000001	0,914848328	-0,0002777401560039984	-0,099986457371994816	9,14724442E-005	-0,028605669940939661	0,0010673160062287432	0,028605669940939661
1	0	0	1	0	0	1	28251,10	-0,100000001	0,91269058	-0,00027774030428545344	-0,099986510753319283	9,12567484E-005	-0,028883410245225114	0,0010776788704074443	0,028883410245225114
1	0	0	1	0	0	1	28261,10	-0,100000001	0,910609245	-0,00027774055120969811	-0,099986599646048435	9,10487215E-005	-0,02916115079643481	0,0010880417437992206	0,02916115079643481
1	0	0	1	0	0	1	28271,10	-0,100000001	0,908356011	-0,00027774032635697059	-0,099986518699065536	9,0823356E-005	-0,029438891122791782	0,0010984046088014397	0,029438891122791782
1	0	0	1	0	0	1	28281,10	-0,100000001	0,906331956	-0,0002777403677105904	-0,099986533586368845	9,06209898E-005	-0,029716631490502374	0,0011087674753466179	0,029716631490502374
1	0	0	1	0	0	1	28291,10	-0,100000001	0,904078782	-0,00027774017190891837	-0,099986463097766054	9,03956388E-005	-0,02999437166241129	0,0011191303345861722	0,02999437166241129
1	0	0	1	0	0	1	28301,10	-0,100000001	0,9017874	-0,00027774097526032064	-0,099986752304274381	9,01667954E-005	-0,03027211263767161	0,0011294932237998477	0,03027211263767161
1	0	0	1	0	0	1	28311,10	-0,100000001	0,899476886	-0,0002777408449894024	-0,099986705406743245	8,99357328E-005	-0,030549853482661011	0,0011398561081529398	0,030549853482661011
1	0	0	1	0	0	1	28321,10	-0,100000001	0,897319198	-0,00027774091998736067	-0,09998673240600855	8,97200152E-005	-0,030827594402648371	0,0011502189953043069	0,030827594402648371
1	0	0	1	0	0	1	28331,10	-0,100000001	0,895027816	-0,00027774099718820717	-0,099986760198313638	8,94909317E-005	-0,031105335399836576	0,0011605818853361408	0,031105335399836576
1	0	0	1	0	0	1	28341,10	-0,100000001	0,892755508	-0,00027774112694669104	-0,099986806911368384	8,9263769E-005	-0,03138307652678327	0,001170944780209439	0,03138307652678327
1	0	0	1	0	0	1	28351,10	-0,100000001	0,89042592	-0,00027774083261274627	-0,099986700951146995	8,90307492E-005	-0,031660817359396019	0,0011813076641007416	0,031660817359396019
1	0	0	1	0	0	1	28361,10	-0,100000001	0,888115406	-0,00027774050460921395	-0,099986582869873933	8,87996212E-005	-0,031938557864005235	0,0011916705357537912	0,031938557864005235
1	0	0	1	0	0	1	28371,10	-0,100000001	0,885728598	-0,00027774067890892426	-0,099986645617770394	8,8561028E-005	-0,032216298542914163	0,0012020334139101981	0,032216298542914163
1	0	0	1	0	0	1	28381,10	-0,100000001	0,883322597	-0,00027774059520289299	-0,099986615483598784	8,83204339E-005	-0,032494039138117056	0,0012123962889434197	0,032494039138117056
1	0	0	1	0	0	1	28391,10	-0,100000001	0,880878448	-0,00027774067949213917	-0,099986645827727757	8,80760781E-005	-0,032771779817609197	0,0012227591671215864	0,032771779817609197
1	0	0	1	0	0	1	28401,10	-0,100000001	0,878587067	-0,00027774048314574694	-0,099986575143025715	8,78469145E-005	-0,033049520300754938	0,0012331220379738053	0,033049520300754938
1	0	0	1	0	0	1	28411,10	-0,100000001	0,876161993	-0,00027774041862992778	-0,099986551917330522	8,76044141E-005	-0,03332726071938487	0,0012434849064188526	0,03332726071938487
1	0	0	1	0	0	1	28421,10	-0,100000001	0,873756051	-0,00027774021285979283	-0,09998647784008105	8,7363791E-005	-0,033605000932244659	0,001253847767186339	0,033605000932244659
1	0	0	1	0	0	1	28431,10	-0,100000001	0,871426463	-0,00027774051343484054	-0,099986586047099546	8,71309603E-005	-0,033882741445679501	0,0012642106391686848	0,033882741445679501
1	0	0	1	0	0	1	28441,10	-0,100000001	0,868810475	-0,00027774052648329072	-0,09998659074454167	8,68693969E-005	-0,034160481972162797	0,0012745735116378859	0,034160481972162797
1	0	0	1	0	0	1	28451,10	-0,100000001	0,8665573	-0,00027774048546536099	-0,099986575978086784	8,66440969E-005	-0,034438222457628154	0,0012849363825766528	0,034438222457628154
1	0	0	1	0	0	1	28461,10	-0,100000001	0,863979459	-0,00027774017257822883	-0,099986463338717824	8,63862515E-005	-0,034715962630206381	0,0012952992418411802	0,034715962630206381
1	0	0	1	0	0	1	28471,10	-0,100000001	0,861554444	-0,00027774005398112867	-0,099986420643761254	8,61437438E-005	-0,034993702684187514	0,0013056620966806902	0,034993702684187514
1	0	0	1	0	0	1	28481,10	-0,100000001	0,858995676	-0,00027774060975346301	-0,099986620721804045	8,5888074E-005	-0,035271443293940973	0,0013160249722568133	0,035271443293940973
1	0	0	1	0	0	1	28491,10	-0,100000001	0,856551528	-0,00027774038725884426	-0,099986540623740326	8,56436236E-005	-0,035549183681199814	0,0013263878395313629	0,035549183681199814
1	0	0	1	0	0	1	28501,10	-0,100000001	0,854069233	-0,00027774010755990944	-0,099986439932122586	8,53953388E-005	-0,035826923788759725	0,0013367506963699694	0,035826923788759725
1	0	0	1	0	0	1	28511,10	-0,100000001	0,851625085	-0,00027773993314057587	-0,099986377141161728	8,51509103E-005	-0,036104663721900307	0,001347113546700756	0,036104663721900307
1	0	0	1	0	0	1	28521,10	-0,100000001	0,849123657	-0,00027774002455009357	-0,099986410048588506	8,49008284E-005	-0,0363824037464504	0,0013574764004421547	0,0363824037464504
1	0	0	1	0	0	1	28531,10	-0,100000001	0,846584022	-0,00027773970148257082	-0,099986293744278886	8,46467956E-005	-0,036660143447932973	0,0013678392421294698	0,036660143447932973
1	0	0	1	0	0	1	28541,10	-0,100000001	0,843948901	-0,0002777398871469001	-0,099986360583438246	8,43833768E-005	-0,036937883335079872	0,0013782020907441702	0,036937883335079872
1	0	0	1	0	0	1	28551,10	-0,100000001	0,841504753	-0,00027773983064128298	-0,099986340241415834	8,41389774E-005	-0,037215623165721158	0,0013885649372505702	0,037215623165721158
1	0	0	1	0	0	1	28561,10	-0,100000001	0,838755071	-0,00027773970320282714	-0,099986294363571174	8,38640117E-005	-0,037493362868923981	0,0013989277790020706	0,037493362868923981
1	0	0	1	0	0	1	28571,10	-0,100000001	0,836330056	-0,00027773943163909846	-0,099986196600627674	8,36214604E-005	-0,037771102300563085	0,0014092906106211626	0,037771102300563085
1	0	0	1	0	0	1	28581,10	-0,100000001	0,833714068	-0,00027773971498095328	-0,099986298603696653	8,33599843E-005	-0,038048842015544038	0,0014196534528121203	0,038048842015544038
1	0	0	1	0	0	1	28591,10	-0,100000001	0,831174433	-0,00027773960039060979	-0,099986257351172493	8,31060242E-005	-0,03832658161593465	0,0014300162907275581	0,03832658161593465
1	0	0	1	0	0	1	28601,10	-0,100000001	0,828634799	-0,00027773983123401802	-0,099986340454800448	8,28521588E-005	-0,038604321447168666	0,0014403791372560742	0,038604321447168666
1	0	0	1	0	0	1	28611,10	-0,100000001	0,825999677	-0,00027773985643767648	-0,099986349528117606	8,25886891E-005	-0,038882061303606342	0,0014507419847249725	0,038882061303606342
1	0	0	1	0	0	1	28621,10	-0,100000001	0,823460102	-0,00027774017235305571	-0,099986463257655501	8,23348601E-005	-0,039159801475959398	0,0014611048439810982	0,039159801475959398
1	0	0	1	0	0	1	28631,10	-0,100000001	0,820748627	-0,00027774029985111622	-0,09998650915695785	8,2063787E-005	-0,039437541775810515	0,0014714677079943482	0,039437541775810515
1	0	0	1	0	0	1	28641,10	-0,100000001	0,818132579	-0,00027774025855751504	-0,099986494291261235	8,1802209E-005	-0,039715282034368026	0,0014818305704668781	0,039715282034368026
1	0	0	1	0	0	1	28651,10	-0,100000001	0,815459311	-0,00027773992624258003	-0,0999863746578832	8,15348176E-005	-0,039993021960610611	0,0014921934205402912	0,039993021960610611
1	0	0	1	0	0	1	28661,10	-0,100000001	0,812976956	-0,00027774029086074896	-0,0999865059204256	8,1286722E-005	-0,04027076225147136	0,0015025562842180986	0,04027076225147136
1	0	0	1	0	0	1	28671,10	-0,100000001	0,810246408	-0,00027773998420809706	-0,099986395525469581	8,10136189E-005	-0,040548502235679456	0,0015129191364542829	0,040548502235679456
1	0	0	1	0	0	1	28681,10	-0,100000001	0,8076877	-0,00027773975664170253	-0,099986313601566554	8,07577162E-005	-0,040826241992321152	0,0015232819801996589	0,040826241992321152
1	0	0	1	0	0	1	28691,10	-0,100000001	0,805014372	-0,00027773984955458179	-0,099986347050203482	8,04904485E-005	-0,041103981841875731	0,0015336448274117395	0,041103981841875731
1	0	0	1	0	0	1	28701,10	-0,100000001	0,802226543	-0,00027773955259389347	-0,099986240144354406	8,02116192E-005	-0,041381721394469626	0,0015440076635438176	0,041381721394469626
1	0	0	1	0	0	1	28709,69	-0,100000001	0,799973369	-0,00023861703261857232	-0,099986187097342464	7,99862901E-005	-0,041620338427088198	0,0015529107858548291	0,041620338427088198
1	1	0	0	1	0	2	28709,69	0,100000001	0,81164211	5,4884250793192122E-009	0,032930551307810976	2,67278228E-005	-0,041620332938663117	0,0015529105810743098	5,4884250793192122E-009
1	1	0	0	0	0	2	28719,69	0,100000001	0,83290565	0,0002778061985899177	0,10001023270306806	8,32990845E-005	-0,041342526740073197	0,0015425452582905133	0,00027781168701499702
1	1	0	0	0	0	2	28729,69	0,100000001	0,83884418	0,00027780678053200243	0,10001044220236666	8,3893181E-005	-0,04106471995954119	0,0015321799137936755	0,00055561846754699949
1	1	0	0	0	0	2	28739,69	0,100000001	0,84398073	0,00027780673400271267	0,10001042545182213	8,44068709E-005	-0,040786913225538477	0,0015218145710329082	0,00083342520154971226
1	1	0	0	0	0	2	28749,69	0,100000001	0,848487079	0,00027780678366579942	0,10001044333053358	8,48575655E-005	-0,040509106441872678	0,001511449226419144	0,0011112319852155117
1	1	0	0	0	0	2	28759,69	0,100000001	0,852821648	0,00027780649569920365	0,10001033966255786	8,52909798E-005	-0,040231299946173478	0,0015010838925498006	0,0013890384809147154
1	1	0	0	0	0	2	28769,69	0,100000001	0,85694617	0,00027780660643759699	0,10001037952837994	8,5703512E-005	-0,039953493339735878	0,0014907185545486589	0,0016668450873523123
1	1	0	0	0	0	2	28779,69	0,100000001	0,861032426	0,00027780634560560189	0,10001028562886056	8,61121007E-005	-0,039675686994130272	0,0014803532262795098	0,0019446514329579142
1	1	0	0	0	0	2	28789,69	0,100000001	0,865118742	0,00027780634553523526	0,10001028560352856	8,65207694E-005	-0,039397880648595034	0,0014699878980129859	0,0022224577784931494
1	1	0	0	0	0	2	28799,69	0,100000001	0,868918657	0,00027780620210741958	0,10001023396951429	8,69007563E-005	-0,039120074446487616	0,0014596225750979466	0,002500263980600569
1	1	0	0	0	0	2	28809,69	0,100000001	0,872718513	0,00027780646446885331	0,10001032841963158	8,72808669E-005	-0,038842267982018765	0,0014492572423938502	0,0027780704450694224
1	1	0	0	0	0	2	28819,69	0,100000001	0,876422942	0,00027780635733612714	0,1000102898518497	8,7651315E-005	-0,038564461624682643	0,0014388919136870192	0,0030558768024055494
1	1	0	0	0	0	2	28829,69	0,100000001	0,880146444	0,00027780614604718157	0,10001021378782838	8,8023633E-005	-0,038286655478635462	0,001428526592863663	0,0033336829484527309
1	1	0	0	0	0	2	28839,69	0,100000001	0,883736312	0,00027780575623280467	0,10001007345465101	8,83825342E-005	-0,038008849722402656	0,0014181612865848054	0,0036114887046855354
1	1	0	0	0	0	2	28849,69	0,100000001	0,887364328	0,00027780572324328947	0,10001006157842538	8,87453643E-005	-0,037731043999159366	0,001407795981536831	0,003889294427928825
1	1	0	0	0	0	2	28859,69	0,100000001	0,890782297	0,00027780564440290131	0,10001003319588531	8,9087167E-005	-0,037453238354756467	0,0013974306794304973	0,0041671000723317267
1	1	0	0	0	0	2	28869,69	0,100000001	0,894353092	0,00027780564995068643	0,10001003519308795	8,94442855E-005	-0,037175432704805779	0,0013870653771171683	0,0044449057222824128
1	1	0	0	0	0	2	28879,69	0,100000001	0,897885621	0,00027780593766354854	0,10001013876971957	8,97976643E-005	-0,036897626767142227	0,0013767000640688854	0,004722711659945961
1	1	0	0	0	0	2	28889,69	0,100000001	0,901246309	0,00027780574809759853	0,10001007052597674	9,01337044E-005	-0,036619821019044634	0,0013663347580935634	0,005000517408043559
1	1	0	0	0	0	2	28899,69	0,100000001	0,904683411	0,00027780573299071853	0,10001006508749987	9,04774497E-005	-0,036342015286053914	0,0013559694526818992	0,0052783231410342778
1	1	0	0	0	0	2	28909,69	0,100000001	0,90815866	0,0002778060752612849	0,10001018830490526	9,08251168E-005	-0,036064209210792634	0,00134560413449966	0,0055561292162955629
1	1	0	0	0	0	2	28919,69	0,100000001	0,911404788	0,00027780599596144422	0,10001015975696227	9,11497409E-005	-0,035786403214831187	0,0013352388192762045	0,0058339352122570074
1	1	0	0	0	0	2	28929,69	0,100000001	0,914765537	0,00027780606545342336	0,10001018477407507	9,14858683E-005	-0,03550859714937776	0,0013248735014599096	0,0061117412777104307
1	1	0	0	0	0	2	28939,69	0,100000001	0,918011665	0,00027780598758740563	0,10001015674230832	9,18104924E-005	-0,035230791161790355	0,0013145081865489006	0,0063895472652978368
1	1	0	0	0	0	2	28949,69	0,100000001	0,921257794	0,0002778063627920217	0,10001029181597176	9,21352621E-005	-0,03495298479899833	0,0013041428576385032	0,0066673536280898573
1	1	0	0	0	0	2	28959,69	0,100000001	0,924408436	0,00027780652114417818	0,10001034882274878	9,24504129E-005	-0,034675178277854157	0,0012937775228197738	0,0069451601492340365
1	1	0	0	0	0	2	28969,69	0,100000001	0,927711844	0,00027780652592206995	0,10001035054278986	9,27807851E-005	-0,03439737175193209	0,0012834121878227746	0,0072229666751561062
1	1	0	0	0	0	2	28979,69	0,100000001	0,930881619	0,0002778062793807023	0,10001026178789642	9,30977112E-005	-0,034119565472551386	0,0012730468620245653	0,0075007729545368077
1	1	0	0	0	0	2	28989,69	0,100000001	0,933936834	0,0002778064048551023	0,10001030695868096	9,34033087E-005	-0,033841759067696288	0,0012626815315447378	0,0077785793593919104
1	1	0	0	0	0	2	28999,69	0,100000001	0,937202036	0,00027780648805821933	0,10001033691180346	9,37298901E-005	-0,033563952579638067	0,0012523161979604899	0,0080563858474501299
1	1	0	0	0	0	2	29009,69	0,100000001	0,940219045	0,00027780604174608989	0,10001017623943491	9,40314712E-005	-0,033286146537891974	0,0012419508810287478	0,0083341918891962202
1	1	0	0	0	0	2	29019,69	0,100000001	0,943293333	0,00027780643243590992	0,10001031688777182	9,43390623E-005	-0,033008340105456064	0,0012315855495198429	0,0086119983216321293
1	1	0	0	0	0	2	29029,69	0,100000001	0,946424901	0,00027780617508995866	0,10001022424322826	9,46521686E-005	-0,032730533930366106	0,0012212202276128618	0,0088898044967220877
1	1	0	0	0	0	2	29039,69	0,100000001	0,94949913	0,00027780586083109184	0,10001011111003482	9,49595124E-005	-0,032452728069535008	0,0012108549174313008	0,0091676103575531789
1	1	0	0	0	0	2	29049,69	0,100000001	0,952497065	0,00027780596253979536	0,10001014772516854	9,52593691E-005	-0,032174922106995213	0,0012004896034548522	0,0094454163200929741
1	1	0	0	0	0	2	29059,69	0,100000001	0,955284894	0,00027780664435981046	0,10001039318037693	9,55384166E-005	-0,031897115462635405	0,0011901242640387818	0,0097232229644527846
1	1	0	0	0	0	2	29069,69	0,100000001	0,958340108	0,00027780665694466899	0,10001039771092606	9,58439778E-005	-0,031619308805690733	0,0011797589241531536	0,010001029621397454
1	1	0	0	0	0	2	29079,69	0,100000001	0,961280704	0,00027780651354086074	0,10001034608555446	9,61380138E-005	-0,031341502292149875	0,0011693935896181138	0,010278836134938315
1	1	0	0	0	0	2	29089,69	0,100000001	0,964068592	0,00027780676363408566	0,10001043611911654	9,6416923E-005	-0,031063695528515789	0,0011590282457517598	0,0105566428985724
1	1	0	0	0	0	2	29099,69	0,100000001	0,96679914	0,00027780700725234214	0,10001052382168995	9,66900916E-005	-0,03078588852126345	0,0011486628927956813	0,010834449905824742
1	1	0	0	0	0	2	29109,69	0,100000001	0,969548821	0,00027780667316416902	0,10001040354994614	9,696497E-005	-0,030508081848099277	0,0011382975523048814	0,011112256578988912
1	1	0	0	0	0	2	29119,69	0,100000001	0,97239393	0,00027780677406489846	0,1000104398742092	9,72495473E-005	-0,030230275074034381	0,00112793220804934	0,011390063353053811
1	1	0	0	0	0	2	29129,69	0,100000001	0,975430012	0,00027780675531923773	0,10001043312577123	9,75531802E-005	-0,029952468318715142	0,0011175668644932242	0,011667870108373048
1	1	0	0	0	0	2	29139,69	0,100000001	0,978657067	0,00027780653900239206	0,10001035525170586	9,78758399E-005	-0,029674661779712749	0,0011072015290081808	0,01194567664737544
1	1	0	0	0	0	2	29149,69	0,100000001	0,982208729	0,00027780647733517818	0,10001033305150859	9,8231023E-005	-0,029396855302377574	0,001096836195824024	0,012223483124710618
1	1	0	0	0	0	2	29159,69	0,100000001	0,986772418	0,00027780682851456931	0,10001045947609093	9,86875602E-005	-0,029119048473863008	0,001086470849536892	0,012501289953225187
1	1	0	0	0	0	2	29169,69	0,100000001	0,992080808	0,00027780667930675875	0,10001040576127848	9,92184068E-005	-0,02884124179455625	0,001076105508816904	0,012779096632531947
1	1	0	0	0	0	2	29179,69	0,100000001	0,998840392	0,00027780637942627075	0,10001029780430147	9,98943215E-005	-0,028563435415129978	0,0010657401792858602	0,013056903011958218
1	1	0	0	0	0	2	29189,69	0,100000001	1,00710857	0,00027780658362598886	0,1000103713162009	0,0001007213	-0,028285628831503987	0,0010553748421358502	0,013334709595584205
1	1	0	0	0	0	2	29199,69	0,100000001	1,0167706	0,0002778067421147393	0,10001042837215176	0,000101687663	-0,028007822089389248	0,001045009499072412	0,013612516337698944
1	1	0	0	0	0	2	29209,69	0,100000001	1,02725363	0,00027780618941990864	0,1000102294020103	0,000102735874	-0,027730015899969338	0,0010346441766307613	0,013890322527118853
1	1	0	0	0	0	2	29219,69	0,100000001	1,03800404	0,00027780587170811162	0,10001011502576198	0,000103810904	-0,027452210028261229	0,0010242788660433643	0,014168128398826965
1	1	0	0	0	0	2	29229,69	0,100000001	1,04827714	0,00027780634654478893	0,1000102859669679	0,000104838495	-0,027174403681716438	0,001013913537739173	0,014445934745371757
1	1	0	0	0	0	2	29239,69	0,100000001	1,0586648	0,00027780652507767082	0,10001035023880616	0,000105877436	-0,026896597156638768	0,0010035482027736795	0,014723741270449427
1	1	0	0	0	0	2	29249,69	0,100000001	1,06863236	0,00027780675224545923	0,10001043201921099	0,000106874388	-0,026618790404393309	0,0009931828593322505	0,015001548022694883
1	1	0	0	0	0	2	29259,69	0,100000001	1,07837069	0,000277806639879528	0,10001039156747525	0,000107848275	-0,026340983764513782	0,00098281752008334566	0,015279354662574413
1	1	0	0	0	0	2	29269,69	0,100000001	1,087479	0,00027780696018785235	0,10001050687847342	0,000108759326	-0,026063176804325933	0,00097245216888330637	0,015557161622762266
1	1	0	0	0	0	2	29279,69	0,100000001	1,09654903	0,00027780608957467805	0,10001019345772688	0,000109666078	-0,025785370714751254	0,00096208685016701517	0,015834967712336944
1	1	0	0	0	0	2	29289,69	0,100000001	1,10529459	0,00027780649007525715	0,10001033763793707	0,000110540888	-0,025507564224675997	0,00095172151650750899	0,016112774202412202
1	1	0	0	0	0	2	29299,69	0,100000001	1,11382997	0,00027780639040966832	0,10001030175832466	0,000111394475	-0,02522975783426633	0,00094135618656665971	0,016390580592821869
1	1	0	0	0	0	2	29309,69	0,100000001	1,12217438	0,00027780657004026902	0,1000103664253417	0,000112229071	-0,024951951264226058	0,00093099084992355136	0,016668387162862141
1	1	0	0	0	0	2	29319,69	0,100000001	1,13013697	0,00027780693379830986	0,10001049737823798	0,000113025562	-0,024674144330427747	0,00092062549970814131	0,016946194096660451
1	1	0	0	0	0	2	29329,69	0,100000001	1,13796592	0,00027780693710885114	0,10001049857003286	0,000113808535	-0,024396337393318896	0,00091026014936921062	0,017224001033769302
1	1	0	0	0	0	2	29339,69	0,100000001	1,14568031	0,00027780680865628854	0,10001045232710978	0,000114580005	-0,024118530584662605	0,00089989480382301773	0,017501807842425594
1	1	0	0	0	0	2	29349,69	0,100000001	1,15316546	0,00027780682982049056	0,10001045994622258	0,000115328607	-0,023840723754842112	0,00088952945748715994	0,017779614672246083
1	1	0	0	0	0	2	29359,69	0,100000001	1,16053605	0,00027780663056713011	0,10001038821501195	0,000116065661	-0,023562917124274982	0,0008791641185857129	0,018057421302813216
1	1	0	0	0	0	2	29369,69	0,100000001	1,16796398	0,00027780676742394765	0,10001043748346686	0,000116808587	-0,023285110356851034	0,00086879877457795405	0,018335228070237165
1	1	0	0	0	0	2	29379,69	0,100000001	1,17506731	0,0002778067672347857	0,10001043741536856	0,000117518997	-0,023007303589616246	0,00085843343057725325	0,018613034837471949
1	1	0	0	0	0	2	29389,69	0,100000001	1,18222797	0,00027780653172814182	0,10001035263297576	0,000118235039	-0,022729497057888106	0,00084806809536362176	0,018890841369200093
1	1	0	0	0	0	2	29399,69	0,100000001	1,1893121	0,00027780637178445853	0,10001029505324907	0,000118943455	-0,022451690686103645	0,00083770276611770419	0,01916864774098455
1	1	0	0	0	0	2	29409,69	0,100000001	1,19649184	0,00027780642006132342	0,10001031243292061	0,000119661519	-0,02217388426604232	0,00082733743507051187	0,019446454161045875
1	1	0	0	0	0	2	29419,69	0,100000001	1,20361423	0,0002778066480499175	0,10001039450881549	0,000120373938	-0,021896077617992403	0,00081697209551675866	0,019724260809095795
1	1	0	0	0	0	2	29429,69	0,100000001	1,21064115	0,00027780662447172739	0,10001038602066694	0,000121076686	-0,021618270993520678	0,00080660675684273933	0,02000206743356752
1	1	0	0	0	0	2	29439,69	0,100000001	1,21783996	0,00027780594680209955	0,10001014205959798	0,000121796344	-0,021340465046718576	0,00079624144345348506	0,020279873380369622
1	1	0	0	0	0	2	29449,69	0,100000001	1,22498143	0,00027780611634585594	0,10001020309535101	0,000122510639	-0,02106265893037272	0,00078587612373832525	0,020557679496715475
1	1	0	0	0	0	2	29459,69	0,100000001	1,23219931	0,00027780651392208205	0,10001034622279416	0,000123232676	-0,02078485241645064	0,00077551078918906202	0,020835486010637558
1	1	0	0	0	0	2	29469,69	0,100000001	1,23945534	0,00027780644429185328	0,10001032115591147	0,000123958322	-0,02050704597215879	0,0007651454572377961	0,021113292454929408
1	1	0	0	0	0	2	29479,69	0,100000001	1,24674964	0,00027780680112292371	0,1000104496150984	0,000124687998	-0,020229239171035866	0,00075478011197268326	0,021391099256052333
1	1	0	0	0	0	2	29489,69	0,100000001	1,25406289	0,000277806513071888	0,10001034591672429	0,000125419261	-0,019951432657963978	0,00074441477745514176	0,021668905769124221
1	1	0	0	0	0	2	29499,69	0,100000001	1,26135719	0,00027780659966005216	0,10001037708846378	0,000126148807	-0,019673626058303923	0,00073404943970687936	0,021946712368784275
1	1	0	0	0	0	2	29509,69	0,100000001	1,26867056	0,00027780661203049949	0,10001038154182486	0,00012688023	-0,019395819446273424	0,00072368410149705894	0,022224518980814774
1	1	0	0	0	0	2	29519,69	0,100000001	1,27611756	0,00027780667548668054	0,10001040438605032	0,00012762504	-0,019118012770786742	0,0007133187609196032	0,022502325656301453
1	1	0	0	0	0	2	29529,69	0,100000001	1,28362191	0,0002778067620359361	0,10001043554378269	0,000128375585	-0,018840206008750806	0,00070295341711287834	0,022780132418337392
1	1	0	0	0	0	2	29539,69	0,100000001	1,29106891	0,00027780666576491462	0,10001040088621453	0,000129120323	-0,018562399342985894	0,00069258807689815475	0,023057939084102304
1	1	0	0	0	0	2	29549,69	0,100000001	1,2984395	0,00027780681151068874	0,10001045335469384	0,000129857523	-0,018284592531475206	0,00068222273124546048	0,023335745895612992
1	1	0	0	0	0	2	29559,69	0,100000001	1,30609655	0,00027780675193046528	0,10001043190581315	0,000130623273	-0,018006785779544742	0,00067185738781578432	0,023613552647543456
1	1	0	0	0	0	2	29569,69	0,100000001	1,31371546	0,0002778070742690729	0,10001054794771331	0,000131385401	-0,01772897870527567	0,00066149203235922138	0,023891359721812528
1	1	0	0	0	0	2	29579,69	0,100000001	1,32127702	0,00027780668942299152	0,10001040940312234	0,00013214146	-0,017451172015852678	0,00065112669126178304	0,02416916641123552
1	1	0	0	0	0	2	29589,69	0,100000001	1,32897222	0,00027780645337659446	0,10001032442641835	0,000132910936	-0,017173365562476083	0,00064076135897155328	0,024446972864612115
1	1	0	0	0	0	2	29599,69	0,100000001	1,33649564	0,00027780658134818077	0,10001037049618998	0,00013366343	-0,016895558981127904	0,00063039602190653158	0,024724779445960294
1	1	0	0	0	0	2	29609,69	0,100000001	1,34424818	0,00027780667123819395	0,1000104028565951	0,0001344388	-0,016617752309889706	0,00062003068148759258	0,02500258611719849
1	1	0	0	0	0	2	29619,69	0,100000001	1,35205805	0,00027780666438531539	0,10001040038955882	0,000135219874	-0,01633994564550439	0,00060966534132434355	0,025280392781583808
1	1	0	0	0	0	2	29629,69	0,100000001	1,3597151	0,00027780610796726416	0,10001020007905794	0,000135985378	-0,016062139537537126	0,00059930002192180019	0,025558198889551072
1	1	0	0	0	0	2	29639,69	0,100000001	1,36727667	0,00027780629917316966	0,10001026891318475	0,000136741714	-0,015784333238363955	0,00058893469538510746	0,025836005188724243
1	1	0	0	0	0	2	29649,69	0,100000001	1,37290967	0,00027780588740772672	0,1000101206776235	0,000137304858	-0,01550652735095623	0,00057856938421193702	0,026113811076131968
1	1	0	0	0	0	2	29659,69	0,100000001	1,37329149	0,00027780604944957629	0,10001017901269005	0,00013734313	-0,015228721301506653	0,00056820406699276736	0,026391617125581546
1	1	0	0	0	0	2	29669,69	0,100000001	1,37100017	0,00027780637634711133	0,1000102966958041	0,000137114141	-0,014950914925159539	0,00055783873757661107	0,026669423501928656
1	1	0	0	0	0	2	29679,69	0,100000001	1,3696444	0,00027780660113030013	0,10001037761775302	0,000136978648	-0,014673108324029242	0,0005474733997734919	0,026947230103058957
1	1	0	0	0	0	2	29689,69	0,100000001	1,36912882	0,00027780671769049434	0,10001041957942346	0,000136927149	-0,014395301606338747	0,00053710805762135507	0,027225036820749453
1	1	0	0	0	0	2	29699,69	0,100000001	1,36972082	0,00027780654909213386	0,10001035888401296	0,000136986273	-0,014117495057246613	0,00052674272175984979	0,027502843369841587
1	1	0	0	0	0	2	29709,69	0,100000001	1,37103832	0,00027780657931789754	0,10001036976528802	0,000137118055	-0,013839688477928714	0,00051637738477058067	0,027780649949159485
1	1	0	0	0	0	2	29719,69	0,100000001	1,37290967	0,00027780648802096643	0,10001033689839242	0,000137305164	-0,013561881989907747	0,00050601205118772269	0,028058456437180451
1	1	0	0	0	0	2	29729,69	0,100000001	1,37537289	0,00027780683210781875	0,10001046076966077	0,000137551673	-0,013284075157799931	0,00049564670476652173	0,028336263269288269
1	1	0	0	0	0	2	29739,69	0,100000001	1,37877178	0,0002778063607584271	0,1000102910838777	0,000137891373	-0,013006268797041502	0,00048528137593200026	0,028614069630046698
1	1	0	0	0	0	2	29749,69	0,100000001	1,38299179	0,00027780623527243734	0,10001024590892085	0,000138313349	-0,012728462561769067	0,00047491605177952979	0,028891875865319136
1	1	0	0	0	0	2	29759,69	0,100000001	1,38826191	0,00027780674777966406	0,10001043041152469	0,000138840667	-0,012450655813989402	0,00046455070850472563	0,029169682613098797
1	1	0	0	0	0	2	29769,69	0,100000001	1,39441049	0,00027780642382593622	0,10001031378818126	0,000139455427	-0,012172849390163466	0,00045418537731707059	0,029447489036924736
1	1	0	0	0	0	2	29779,69	0,100000001	1,4016093	0,00027780636546678013	0,1000102927788848	0,000140175354	-0,011895043024696686	0,00044382004830687411	0,029725295402391514
1	1	0	0	0	0	2	29789,69	0,100000001	1,40974367	0,00027780644605515734	0,10001032179070096	0,000140988923	-0,011617236578641528	0,00043345471628981702	0,030003101848446669
1	1	0	0	0	0	2	29799,69	0,100000001	1,418661	0,00027780664163910678	0,10001039220092362	0,000141880839	-0,011339429937002422	0,00042308937697525971	0,030280908490085779
1	1	0	0	0	0	2	29809,69	0,100000001	1,42826581	0,00027780625779678426	0,10001025401768582	0,000142841222	-0,011061623679205637	0,00041272405198237562	0,030558714747882566
1	1	0	0	0	0	2	29819,69	0,100000001	1,43850064	0,00027780627627381021	0,10001026066941525	0,000143864818	-0,010783817402931829	0,00040235872630008877	0,030836521024156378
1	1	0	0	0	0	2	29829,69	0,100000001	1,44972849	0,00027780639125199779	0,10001030206156328	0,000144987789	-0,01050601101167983	0,00039199339632781114	0,031114327415408378
1	1	0	0	0	0	2	29839,69	0,100000001	1,46215928	0,00027780692427522605	0,10001049394992778	0,000146231265	-0,010228204087404605	0,00038162804646772032	0,031392134339683603
1	1	0	0	0	0	2	29849,69	0,100000001	1,47743511	0,00027780673302875619	0,10001042510119779	0,00014775891	-0,0099503973543758477	0,00037126270374329235	0,031669941072712358
1	1	0	0	0	0	2	29859,69	0,100000001	1,4976567	0,00027780637810751798	0,10001029732955048	0,000149781088	-0,0096725909762683302	0,00036089737426145293	0,031947747450819872
1	1	0	0	0	0	2	29869,69	0,100000001	1,53420436	0,00027780650179750384	0,10001034185794595	0,000153436296	-0,0093947844744708275	0,00035053204016457395	0,032225553952617376
1	1	0	0	0	0	2	29879,69	0,100000001	1,66151011	0,00027780628629111584	0,10001026427564531	0,000166168058	-0,0091169781881797107	0,000340166714108528	0,032503360238908493
1	1	0	0	0	0	2	29889,69	0,100000001	1,89874518	0,00027780648206339942	0,10001033475366826	0,000189894141	-0,008839171706116311	0,00032980138074795488	0,032781166720971891
1	1	0	0	0	0	2	29899,69	0,100000001	2,12754035	0,00027780634667186272	0,10001028601271446	0,000212775922	-0,008561365359444448	0,00031943605243902202	0,033058973067643757
1	1	0	0	0	0	2	29909,69	0,100000001	2,31946969	0,00027780691020066541	0,10001048888308587	0,000231971295	-0,0082835584492437824	0,00030907070310407194	0,033336779977844422
1	1	0	0	0	0	2	29919,69	0,100000001	2,4838388	0,00027780677176059952	0,10001043904466155	0,000248409808	-0,0080057516774831821	0,00029870535893450682	0,033614586749605018
1	1	0	0	0	0	2	29929,69	0,100000001	2,62716508	0,0002778063081581559	0,10001027214777984	0,000262743502	-0,0077279453693250266	0,00028834003206257216	0,033892393057763174
1	1	0	0	0	0	2	29939,69	0,100000001	2,75443268	0,00027780629215182525	0,10001026638550075	0,000275471539	-0,0074501390771732019	0,00027797470578785526	0,034170199349914995
1	1	0	0	0	0	2	29949,69	0,100000001	2,86787534	0,00027780695137174595	0,10001050370467507	0,000286817667	-0,0071723321258014566	0,00026760935491675677	0,034448006301286739
1	1	0	0	0	0	2	29959,69	0,100000001	2,97005224	0,00027780720068762698	0,10001059345839331	0,000297036691	-0,0068945249251138291	0,00025724399474334758	0,034725813501974368
1	1	0	0	0	0	2	29969,69	0,100000001	3,06285357	0,00027780707106780672	0,10001054679525746	0,00030631767	-0,0066167178540460224	0,00024687863940622813	0,035003620573042176
1	1	0	0	0	0	2	29979,69	0,100000001	3,14664197	0,00027780705978804163	0,10001054273454198	0,000314697361	-0,0063389107942579814	0,0002365132844899719	0,035281427632830214
1	1	0	0	0	0	2	29989,69	0,100000001	3,2224679	0,00027780694407141872	0,10001050107655722	0,000322280626	-0,0060611038501865626	0,00022614793389125846	0,035559234576901632
1	1	0	0	0	0	2	29999,69	0,100000001	3,28956747	0,00027780689929384323	0,10001048495662986	0,000328991242	-0,0057832969508927194	0,00021578258496325651	0,035837041476195482
1	1	0	0	0	0	2	30009,69	0,100000001	3,34805512	0,00027780681233894493	0,1000104536528661	0,000334840501	-0,0055054901385537741	0,00020541723927965882	0,036114848288534426
1	1	0	0	0	0	2	30019,69	0,100000001	3,39976406	0,00027780650727036922	0,1000103438281775	0,000340011582	-0,0052276836312834054	0,00019505190497857978	0,036392654795804794
1	1	0	0	0	0	2	30029,69	0,100000001	3,44597387	0,00027780650253800883	0,10001034212452773	0,000344633037	-0,0049498771287453965	0,00018468657085407149	0,036670461298342803
1	1	0	0	0	0	2	30039,69	0,100000001	3,48828816	0,00027780702493422557	0,10001053018716805	0,000348865549	-0,0046720701038111712	0,00017432121723825798	0,03694826832327703
1	1	0	0	0	0	2	30049,69	0,100000001	3,52762365	0,00027780657038961846	0,10001036655110749	0,000352798932	-0,0043942635334215526	0,00016395588058211494	0,037226074893666643
1	1	0	0	0	0	2	30059,69	0,100000001	3,56426668	0,00027780677332397962	0,10001043960747842	0,00035646389	-0,0041164567600975725	0,00015359053635421798	0,037503881666990624
1	1	0	0	0	0	2	30069,69	0,100000001	3,59888577	0,00027780669077485802	0,10001040988979427	0,000359926053	-0,0038386500693227142	0,00014322519520633974	0,037781688357765485
1	1	0	0	0	0	2	30079,69	0,100000001	3,63304663	0,00027780638840918742	0,10001030103815154	0,000363342086	-0,003560843680913527	0,00013285986534013123	0,038059494746174669
1	1	0	0	0	0	2	30089,69	0,100000001	3,66716909	0,00027780626791715626	0,10001025766101979	0,000366754539	-0,0032830374129963712	0,00012249453996964242	0,038337301014091827
1	1	0	0	0	0	2	30099,69	0,100000001	3,70159721	0,0002778065104281737	0,10001034496498712	0,000370198017	-0,0030052309025681978	0,00011212920555074149	0,03861510752452
1	1	0	0	0	0	2	30109,69	0,100000001	3,73600626	0,00027780636480160886	0,10001029253942315	0,000373639079	-0,0027274245377665885	0,00010176387656536347	0,038892913889321613
1	1	0	0	0	0	2	30119,69	0,100000001	3,77003336	0,00027780670199626019	0,1000104139294991	0,000377042597	-0,0024496178357703283	9,1398534998799642E-005	0,039170720591317869
1	1	0	0	0	0	2	30129,69	0,100000001	3,80308676	0,00027780693506201114	0,10001049783317045	0,000380348589	-0,0021718109007083171	8,1033184736239296E-005	0,039448527526379878
1	1	0	0	0	0	2	30139,69	0,100000001	3,83501339	0,00027780650340310406	0,10001034243596202	0,000383540988	-0,0018940043973052128	7,0667850579453133E-005	0,039726334029782982
1	1	0	0	0	0	2	30149,69	0,100000001	3,86575627	0,00027780631738942531	0,10001027547103686	0,000386615342	-0,0016161980799157875	6,0302523363087437E-005	0,04000414034717241
1	1	0	0	0	0	2	30159,69	0,100000001	3,89571619	0,00027780602635691565	0,1000101706993321	0,000389611232	-0,001338392053558872	4,9937207005535968E-005	0,040281946373529325
1	1	0	0	0	0	2	30169,69	0,100000001	3,92433929	0,00027780614388237395	0,10001021300849763	0,000392474001	-0,0010605859096764982	3,9571886262951635E-005	0,040559752517411699
1	1	0	0	0	0	2	30179,69	0,100000001	3,95210338	0,00027780642046158512	0,10001031257701485	0,000395251089	-0,00078277948921491315	2,9206555200825075E-005	0,040837558937873286
1	1	0	0	0	0	2	30189,69	0,100000001	3,97927547	0,00027780631530864368	0,10001027472195549	0,000397968426	-0,00050497317390626944	1,8841228062096131E-005	0,041115365253181933
1	1	0	0	0	0	2	30199,69	0,100000001	4,00587463	0,00027780610101007754	0,10001019757447074	0,000400628312	-0,00022716707289619187	8,4759089191348211E-006	0,041393171354192013
1	1	0	0	0	0	2	30209,69	0,100000001	4,03199673	0,00027780610600817536	0,10001019937378595	0,000403240789	5,0639033111983482E-005	-1,8894104103122397E-006	0,041670977460200186
1	1	0	0	0	0	2	30219,69	0,100000001	4,05815649	0,0002778058932630552	0,10001012278554179	0,000405856728	0,00032844492637503872	-1,2254721801952829E-005	0,041948783353463238
1	1	0	0	0	0	2	30229,69	0,100000001	4,08416367	0,00027780589099725091	0,10001012196985222	0,000408457709	0,00060625081737228966	-2,2620033109053216E-005	0,042226589244460493
1	1	0	0	0	0	2	30239,69	0,100000001	4,10992289	0,00027780603646362826	0,1000101743377487	0,000411034096	0,00088405685383591795	-3,2985349843699725E-005	0,042504395280924122
1	1	0	0	0	0	2	30249,69	0,100000001	4,13493729	0,0002778060862736569	0,10001019226935925	0,000413535861	0,0011618629401095749	-4,3350668436825363E-005	0,042782201367197786
1	1	0	0	0	0	2	30259,69	0,100000001	4,15867233	0,00027780603589572835	0,10001017413330474	0,000415909541	0,0014396689760053034	-5,3715985150282765E-005	0,043060007403093517
1	1	0	0	0	0	2	30269,69	0,100000001	4,18120432	0,00027780635038970246	0,10001028735113678	0,000418163458	0,0017174753263950061	-6,4081313597933184E-005	0,043337813753483219
1	1	0	0	0	0	2	30278,93	0,100000001	4,20003891	0,00025656522560450768	0,10001026738002416	0,000420047028	0,0019740405519995136	-7,3654107120851968E-005	0,043594378979087725