EC-Lab ASCII FILE
Nb header lines : 78                          

Potentio Electrochemical Impedance Spectroscopy

Run on channel : 2 (SN 6986)
Grouped channel(s) : 2
User : 
CE vs. WE compliance from -10 V to 10 V
Electrode connection : standard
Ewe ctrl range : min = -10,00 V, max = 10,00 V
Acquisition started on : 02.12.2015 14:59:29
Saved on :
	File : LiCoO2_LATP_Li_06_PEIS_C02.mpr
	Directory : C:\Hupfer\Studenten Batterietests\LiCoO2_LATP_Li\PEIS_GCPL\
	Host : 192.168.0.2
Device : VMP3 (SN 0324)
Address : 192.168.0.1
EC-Lab for windows v10.33 (software)
Internet server v10.33 (firmware)
Command interpretor v10.32 (firmware)
Electrode material : 
Initial state : 
Electrolyte : 
Comments : 
Mass of active material : 0,001 mg
 at x = 0,000
Molecular weight of active material (at x = 0) : 0,001 g/mol
Atomic weight of intercalated ion : 0,001 g/mol
Acquisition started at : xo = 0,000
Number of e- transfered per intercalated ion : 1
for DX = 1, DQ = 26,801 mA.h
Battery capacity : 0,000 A.h
Electrode surface area : 0,001 cm²
Characteristic mass : 0,001 g
Multi Sine          0                   
E (V)               0,0000              
vs.                 Eoc                 
tE (h:m:s)          0:00:0,0000         
record              0                   
dI                  0,000               
unit dI             mA                  
dt (s)              0,000               
fi                  1,000               
unit fi             MHz                 
ff                  1,000               
unit ff             Hz                  
Sel Nd              1                   
Nd                  6                   
Nt                  51                  
Log                 1                   
Va (mV)             10,0                
pw                  0,10                
Na                  2                   
E range min (V)     -10,000             
E range max (V)     10,000              
I Range             Auto                
Bandwidth           5                   
corr                0                   
nc cycles           0                   
goto Ns'            0                   
nr cycles           0                   
inc. cycle          0                   

Number of loops : 11
Loop 0 from point number 0 to 36
Loop 1 from point number 37 to 73
Loop 2 from point number 74 to 110
Loop 3 from point number 111 to 147
Loop 4 from point number 148 to 184
Loop 5 from point number 185 to 221
Loop 6 from point number 222 to 258
Loop 7 from point number 259 to 295
Loop 8 from point number 296 to 332
Loop 9 from point number 333 to 369
Loop 10 from point number 370 to 406

freq/Hz	Re(Z)/Ohm	-Im(Z)/Ohm	|Z|/Ohm	Phase(Z)/deg	time/s	<Ewe>/V	<I>/mA	Cs/µF	Cp/µF	cycle number	I Range	|Ewe|/V	|I|/A	Re(Y)/Ohm-1	Im(Y)/Ohm-1	|Y|/Ohm-1	Phase(Y)/deg
1000024,25	297,199585	809,253479	862,101379	-69,8341599	1845,1133	1,78451145	-0,00168692181	0,000196664085	0,000173291599	1	12	0,0052892426	6,13529073E-006	0,000399881741	0,0010888495	0,00115995633	69,8341599
681286,5	300,156982	876,516052	926,485107	-71,0965805	1845,4273	1,7855401	0,000131233101	0,000266520394	0,000238546651	1	12	0,0103647858	1,11872123E-005	0,000349680602	0,00102113467	0,00107934815	71,0965805
464160,125	420,019836	1193,33508	1265,09497	-70,6093903	1845,8433	1,78552282	0,000123406324	0,00028733589	0,000255663355	1	12	0,0101218671	8,00087491E-006	0,000262436079	0,00074561761	0,000790454505	70,6093903
316223,094	618,499878	1638,00061	1750,88208	-69,3137436	1846,1573	1,78550053	0,000118263037	0,000307264592	0,000268922304	1	12	0,0109977284	6,28125008E-006	0,000201755698	0,000534318562	0,00057114067	69,3137436
215441,859	933,378967	2196,89063	2386,94873	-66,9811249	1846,5733	1,78547919	0,000133021851	0,000336264959	0,000284847425	1	12	0,010115183	4,23770416E-006	0,000163821853	0,000385586871	0,000418944896	66,9811249
146777,328	1412,60754	2865,02368	3194,34204	-63,7542763	1846,8873	1,78548527	0,000127561769	0,000378471304	0,000304457411	1	12	0,0106447972	3,33239109E-006	0,000138439078	0,000280779495	0,000313053519	63,7542763
100024,406	2086,31494	3644,21997	4199,17236	-60,2088776	1847,2013	1,78545332	9,58637393E-005	0,000436625967	0,000328845083	1	12	0,0106670028	2,54026327E-006	0,000118318436	0,00020666988	0,000238142165	60,2088776
68127,4297	2805,00586	4331,5918	5160,49854	-57,0741463	1847,7493	1,78544641	1,20269542E-005	0,000539325061	0,000379981415	1	13	0,00952039938	1,84486032E-006	0,0001053296	0,000162653785	0,000193779721	57,0741463
46411,125	3748,87158	5294,45166	6487,31494	-54,6986237	1848,0633	1,78546011	1,24220469E-005	0,000647704699	0,000431408873	1	13	0,0104718097	1,6141978E-006	8,90780284E-005	0,00012580301	0,000154146983	54,6986237
31628,4121	4814,16504	6383,11963	7995,02344	-52,9763107	1848,3773	1,78545392	1,00420857E-005	0,000788333127	0,000502500217	1	13	0,0105577614	1,32054163E-006	7,53149943E-005	9,98604446E-005	0,0001250778	52,9763107
21545,4082	5943,51318	7693,60986	9721,98438	-52,3129807	1848,6913	1,78544796	1,1661642E-005	0,000960141479	0,000601292413	1	13	0,0103316773	1,06271284E-006	6,28830239E-005	8,13992301E-005	0,00010285966	52,3129807
14672,8496	7066,07129	9472,8418	11817,9561	-53,2796593	1849,0053	1,78546238	9,57242173E-006	0,00114505249	0,000735700771	1	13	0,0100032194	8,4644239E-007	5,05933313E-005	6,78258948E-005	8,46170005E-005	53,2796593
10015,2705	8093,45898	12016,6436	14488,0576	-56,0389137	1849,2576	1,78549016	9,37672849E-006	0,00132243475	0,000909746275	1	13	0,00995481666	6,87105E-007	3,85579442E-005	5,72483368E-005	6,90223678E-005	56,0389137
6856,00244	9258,74902	15732,3975	18254,6641	-59,5225563	1849,6070	1,78551602	1,2233786E-005	0,00147555105	0,00109596422	1	13	0,0097462628	5,33905336E-007	2,7784632E-005	4,7211437E-005	5,47805212E-005	59,5225563
4642,42725	10518,5996	21136,2754	23608,9609	-63,5424805	1850,2732	1,78550303	1,05797426E-005	0,00162198406	0,0013000191	1	13	0,00990386866	4,1949616E-007	1,88714002E-005	3,79205558E-005	4,23567981E-005	63,5424805
3160,05566	12310,1689	28998,8301	31503,5293	-66,998497	1850,7242	1,78550529	1,30286489E-005	0,0017367804	0,00147159211	1	13	0,0101329079	3,21643569E-007	1,24035396E-005	2,9218776E-005	3,17424747E-005	66,998497
2152,93286	14544,6104	40196,9492	42747,4023	-70,1081696	1851,4207	1,78550351	2,29958891E-006	0,00183906266	0,00162616	1	14	0,010908206	2,55178207E-007	7,95944197E-006	2,19975154E-005	2,33932351E-005	70,1081696
1468,58972	17424,3418	56044,9766	58691,1172	-72,7295685	1851,8717	1,78549671	2,73792466E-006	0,00193367281	0,00176324078	1	14	0,0106255822	1,81042424E-007	5,05838261E-006	1,62701654E-005	1,70383537E-005	72,7295685
999,040405	21953,5332	78910,1875	81907,1172	-74,4529495	1852,3227	1,78550041	2,0260909E-006	0,00201884983	0,00187381578	1	14	0,0104593551	1,2769776E-007	3,27236035E-006	1,1762234E-005	1,22089514E-005	74,4529495
681,089661	28349,6035	110823,172	114391,766	-75,6509171	1852,7732	1,78550088	2,75749085E-006	0,00210855645	0,00197905046	1	14	0,0103689088	9,06438373E-008	2,16649369E-006	8,46917374E-006	8,74188754E-006	75,6509171
464,553894	39142,2266	155336,469	160192,172	-75,8568497	1853,2247	1,78549469	2,50971402E-006	0,00220551784	0,00207383814	1	14	0,0103238262	6,44465104E-008	1,52532652E-006	6,0532816E-006	6,24250242E-006	75,8568497
316,315765	54816,4102	218011,281	224797,141	-75,8862152	1853,6736	1,78549337	2,41569114E-006	0,00230791769	0,00217068451	1	14	0,0103051672	4,5842075E-008	1,08474842E-006	4,31417129E-006	4,448455E-006	75,8862152
215,344498	76013,4063	302883,188	312275,938	-75,9116745	1854,1242	1,78550363	2,50859512E-006	0,00244011986	0,00229553785	1	14	0,0102924192	3,29593739E-008	7,79494542E-007	3,10597625E-006	3,20229606E-006	75,9116745
146,737289	112686,789	422855,813	437613,25	-75,0780411	1854,5711	1,78550422	2,387922E-006	0,00256499974	0,00239491998	1	14	0,0102904467	2,3514934E-008	5,88426303E-007	2,2080626E-006	2,28512272E-006	75,0780411
99,9040375	173053,563	568741,75	594486,938	-73,0763397	1855,0227	1,78550196	2,71359977E-006	0,00280105718	0,00256370218	1	14	0,0102835018	1,72981132E-008	4,89661375E-007	1,60927584E-006	1,68212273E-006	73,0763397
68,1888962	230486,25	783780,5	816967,438	-73,6129761	1855,4848	1,78549874	2,82560654E-006	0,00297791301	0,00274088886	1	14	0,0102859102	1,25903554E-008	3,45331017E-007	1,17431591E-006	1,22403901E-006	73,6129761
46,3802681	483885,219	1138567,25	1237125,88	-66,974762	1855,9235	1,78549755	2,69598786E-006	0,00301389559	0,0025528057	1	14	0,0102827372	8,3117957E-009	3,1616554E-007	7,43928069E-007	8,08325183E-007	66,974762
31,5869217	564679,625	1533547,38	1634206,38	-69,7853851	1856,3535	1,78550076	2,36704841E-006	0,00328560709	0,00289331842	1	14	0,0102826748	6,29215213E-009	2,11440593E-007	5,74226704E-007	6,11917812E-007	69,7853851
21,5220375	987141,125	1857806,75	2103780,75	-62,0161629	1856,7753	1,78549385	2,20201946E-006	0,00398048712	0,00310410466	1	14	0,0102805058	4,88668128E-009	2,23037716E-007	4,19758578E-007	4,75334701E-007	62,0161629
14,6851501	1365420,38	2493634	2842988,5	-61,2965431	1857,2358	1,78550231	2,39006499E-006	0,00434619375	0,00334367668	1	14	0,0102854827	3,6178418E-009	1,68933639E-007	3,08519418E-007	3,51742528E-007	61,2965431
9,9904108	2250812,75	2429996,5	3312256,25	-47,1922417	1857,6867	1,78550279	2,59423086E-006	0,00655588228	0,00352853606	1	14	0,0102829952	3,10452886E-009	2,05159452E-007	2,21491874E-007	3,01909012E-007	47,1922417
6,81718969	2681567,5	2164705	3446266,5	-38,9123306	1858,0261	1,78550172	2,03876198E-006	0,010784898	0,00425515836	1	14	0,0102855405	2,98454594E-009	2,25782884E-007	1,8226406E-007	2,90169083E-007	38,9123306
4,63925123	3971011	2397114	4638435,5	-31,1174202	1858,5111	1,78550303	2,47029584E-006	0,0143114468	0,00382223935	1	14	0,01028171	2,2166331E-009	1,84568705E-007	1,1141551E-007	2,15589935E-007	31,1174202
3,16039586	4261758,5	3093548,25	5266177,5	-35,9753494	1859,2050	1,78551066	2,17319484E-006	0,0162787754	0,00561751891	1	14	0,0102823433	1,95252503E-009	1,53673099E-007	1,11549056E-007	1,89891054E-007	35,9753494
2,1522038	6261673,5	2458470,25	6727007,5	-21,43606	1860,2103	1,78551435	2,24238693E-006	0,0300795808	0,00401751837	1	14	0,0102825295	1,5285444E-009	1,38371476E-007	5,43276748E-008	1,48654507E-007	21,43606
1,46630979	6108432,5	2673269,75	6667782	-23,6359177	1861,6718	1,78551364	2,18394143E-006	0,0406023934	0,00652641105	1	14	0,0102842823	1,54238433E-009	1,37393755E-007	6,01284498E-008	1,49974909E-007	23,6359177
0,998529792	6698644,5	2181689,75	7044970,5	-18,0399761	1863,8044	1,78551269	2,19374169E-006	0,0730577186	0,00700638071	1	14	0,0102845458	1,45984225E-009	1,34967308E-007	4,39576695E-008	1,41945236E-007	18,0399761
1000024,25	337,283936	702,53894	779,308289	-64,3546677	23491,2208	4,99957991	0,00275682122	0,000226537042	0,000184103235	2	12	0,00545881269	7,00468991E-006	0,000555363193	0,00115678285	0,00128318928	64,3546677
681286,5	302,818909	863,843689	915,382568	-70,6819763	23491,5348	4,99998188	0,00103003334	0,000270430202	0,000240835347	2	12	0,0102236979	1,11687705E-005	0,000361391256	0,00103093171	0,0010924394	70,6819763
464160,125	421,181122	1175,53577	1248,71045	-70,2879715	23491,9508	4,99997997	0,00102625031	0,000291686592	0,000258502463	2	12	0,0101510575	8,12923281E-006	0,000270112971	0,000753897591	0,000800826179	70,2879715
316223,094	616,986816	1613,2854	1727,24133	-69,0710907	23492,2649	4,99995804	0,0010062923	0,000311971817	0,000272164645	2	12	0,010985489	6,36013556E-006	0,000206809156	0,000540760753	0,000578957901	69,0710907
215441,859	928,584961	2166,90723	2357,4895	-66,8034134	23492,5788	4,99995089	0,000991291017	0,000340917846	0,000288025418	2	12	0,0109842019	4,65927906E-006	0,000167079066	0,000389888824	0,000424180034	66,8034134
146777,328	1402,31482	2809,12573	3139,69336	-63,4716415	23492,8929	4,99993086	0,000978377066	0,000386002386	0,000308999559	2	12	0,0108273774	3,44854607E-006	0,000142256162	0,00028496841	0,000318502454	63,4716415
100024,406	1999,96667	3529,89453	4057,09521	-60,4649887	23493,2068	5,00012016	0,000976234092	0,000450767315	0,000341228646	2	12	0,010614072	2,61617515E-006	0,000121504498	0,000214452608	0,000246481766	60,4649887
68127,4297	2791,95605	4244,86133	5080,73486	-56,6660347	23493,7548	4,99992132	0,000776086585	0,00055034447	0,000384156854	2	13	0,0095066214	1,87111152E-006	0,000108157226	0,000164441124	0,000196821915	56,6660347
46411,125	3732,15381	5173,75391	6379,39648	-54,1947212	23494,0689	4,99990845	0,000798982219	0,000662814942	0,000435957976	2	13	0,010427502	1,63455934E-006	9,17065408E-005	0,000127129577	0,000156754642	54,1947212
31628,4121	4774,42676	6217,2085	7838,93066	-52,4779968	23494,3829	4,99990892	0,000749797095	0,000809370365	0,000509125122	2	13	0,0105653964	1,34781089E-006	7,7697594E-005	0,000101177	0,000127568419	52,4779968
21545,4082	5872,28955	7478,03271	9508,1416	-51,858448	23494,6968	4,99991846	0,000721051358	0,000987820444	0,000611028518	2	13	0,0103033483	1,08363429E-006	6,49555295E-005	8,2717248E-005	0,000105173021	51,858448
14672,8496	6933,77441	9228,92773	11543,4111	-53,0821419	23495,0109	4,99990749	0,000711304194	0,00117531535	0,000751257059	2	13	0,010136879	8,78152832E-007	5,20356989E-005	6,92600734E-005	8,66295086E-005	53,0821419
10015,2705	8003,3584	11681,2529	14159,9932	-55,5831795	23495,2631	4,99994183	0,000698696182	0,00136040431	0,00092580769	2	13	0,010096374	7,13021109E-007	3,99159217E-005	5,82590365E-005	7,06214996E-005	55,5831795
6856,00244	9106,8291	15170,0527	17693,6387	-59,0229225	23495,6125	4,99996805	0,000679546618	0,0015302489	0,00112486898	2	13	0,0098835174	5,5859158E-007	2,90892749E-005	4,84565862E-005	5,65174887E-005	59,0229225
4642,42725	10591,2969	20528,1113	23099,3281	-62,708931	23496,0637	4,99995613	0,000704271428	0,00167003681	0,00131894089	2	13	0,00909042731	3,93536425E-007	1,984954E-005	3,84724917E-005	4,32913039E-005	62,708931
3160,05566	12648,7852	28018,9395	30741,7109	-65,7038269	23496,5147	4,99996471	0,000702329446	0,00179751986	0,00149321044	2	13	0,00929911528	3,02491799E-007	1,33842086E-005	2,96480157E-005	3,2529093E-005	65,7038269
2152,93286	15139,0146	38900,4492	41742,4805	-68,7353439	23497,2112	4,99996424	0,000683714752	0,00190035638	0,00165039441	2	14	0,0100120874	2,39853676E-007	8,68842562E-006	2,2325341E-005	2,39564106E-005	68,7353439
1468,58972	18765,582	53826,9453	57004,2734	-70,780014	23497,6622	4,99996519	0,000677471806	0,00201335317	0,00179516582	2	14	0,00974964723	1,71033619E-007	5,7749362E-006	1,65647507E-005	1,75425448E-005	70,780014
999,040405	24497,2813	75228,3359	79116,4922	-71,9627304	23498,1132	4,99997616	0,000672395399	0,0021176571	0,00191462843	2	14	0,00959930569	1,21331283E-007	3,91366666E-006	1,20184213E-005	1,26395898E-005	71,9627304
681,089661	33845,4648	104865,5	110192,055	-72,1124573	23498,5637	4,99997234	0,000668023713	0,00222834898	0,00201812433	2	14	0,00951847155	8,63807443E-008	2,78740345E-006	8,63638707E-006	9,07506455E-006	72,1124573
464,553894	47807,0195	145445,203	153100,688	-71,8045959	23499,0152	4,99996662	0,000663425133	0,00235550827	0,00212583295	2	14	0,00947644282	6,18967988E-008	2,03956438E-006	6,20504807E-006	6,53164943E-006	71,8045959
316,315765	71190,8984	198345,953	210735,047	-70,2557755	23499,4642	4,99996376	0,000658576027	0,00253673992	0,00224723807	2	14	0,00945092645	4,4847436E-008	1,60306433E-006	4,4663193E-006	4,74529497E-006	70,2557755
215,344498	112118,852	266514,875	289138,063	-67,1842346	23499,9147	4,99996614	0,000654425065	0,00277309585	0,00235611922	2	14	0,00944132358	3,26533396E-008	1,34112133E-006	3,18794582E-006	3,45855528E-006	67,1842346
146,737289	173586,453	352551,625	392969,344	-63,7856674	23500,3616	4,99995613	0,000650488189	0,00307649979	0,00247619604	2	14	0,00943640899	2,4013092E-008	1,12408327E-006	2,28299723E-006	2,54472775E-006	63,7856674
99,9040375	261971,031	453969,375	524134,531	-60,012146	23500,8132	4,99996519	0,000651472132	0,0035092195	0,00263255904	2	14	0,00943318289	1,79976372E-008	9,53603262E-007	1,65249821E-006	1,90790706E-006	60,012146
68,1888962	420457,813	560152,688	700396,875	-53,1076355	23501,2753	4,99996424	0,000649513095	0,00416677492	0,00266516744	2	14	0,00942978729	1,34634917E-008	8,57104965E-007	1,14187355E-006	1,42776196E-006	53,1076355
46,3802681	547576,938	579783,938	797489,75	-46,6364098	23501,7141	4,99996233	0,000645337452	0,00591862295	0,00312825991	2	14	0,00943492912	1,18307844E-008	8,60983619E-007	9,11624397E-007	1,25393456E-006	46,6364098
31,5869217	772479,125	681540,438	1030156	-41,4212151	23502,1439	4,99996471	0,000642249244	0,00739300903	0,00323592522	2	14	0,00943217985	9,15606968E-009	7,27915165E-007	6,42222687E-007	9,70726774E-007	41,4212151
21,5220375	1003798,13	674007,25	1209089,13	-33,8796616	23502,5658	4,99995041	0,000639188976	0,0109716561	0,00340945297	2	14	0,00943178497	7,80073606E-009	6,86641044E-007	4,61049922E-007	8,27068902E-007	33,8796616
14,6851501	1227108,75	683443,563	1404596,38	-29,1158123	23503,0263	4,99996281	0,000636061421	0,0158576593	0,0037544067	2	14	0,00943327509	6,7160042E-009	6,21985066E-007	3,46417323E-007	7,11948303E-007	29,1158123
9,9904108	1309692,13	671162,563	1471649,63	-27,1332474	23503,4772	4,99996328	0,000633008371	0,023736082	0,00493691489	2	14	0,00943400338	6,41049569E-009	6,04728427E-007	3,09898098E-007	6,79509583E-007	27,1332474
6,81718969	1786756,75	657243,313	1903803,63	-20,1956177	23503,8166	4,99996042	0,000632080773	0,0355212763	0,00423347112	2	14	0,00943551958	4,95614128E-009	4,92970742E-007	1,8133511E-007	5,25264284E-007	20,1956177
4,63925123	1566946,63	498797,219	1644421	-17,6575375	23504,3016	4,99995327	0,000631986186	0,0687777922	0,0063280547	2	14	0,00943302643	5,73638159E-009	5,79466246E-007	1,84458202E-007	6,0811675E-007	17,6575375
3,16039586	1755430,88	259566,594	1774517,5	-8,41108799	23504,9955	4,99996138	0,000631803647	0,194012567	0,00415113522	2	14	0,00943557546	5,31726263E-009	5,57472163E-007	8,24305602E-008	5,6353349E-007	8,41108799
2,1522038	1943188,38	224809,797	1956149,38	-6,5992794	23506,0008	4,99996901	0,00063386868	0,32894364	0,00434458116	2	14	0,0094333645	4,82241536E-009	5,07821198E-007	5,87504481E-008	5,11208384E-007	6,5992794
1,46630979	1765902,75	311778,688	1793214,63	-10,012661	23507,4623	4,99997139	0,000631852483	0,348135263	0,0105238901	2	14	0,00943149813	5,25954791E-009	5,4916427E-007	9,69576064E-008	5,57657756E-007	10,012661
0,998529792	1254829,75	-206679,047	1271736,63	9,35303211	23509,5939	4,99997807	0,000615086581	-0,771192253	-0,0203686003	2	14	0,00942727551	7,41291517E-009	7,75872707E-007	-1,27791523E-007	7,86326325E-007	-9,35303211
1000024,25	98,4840775	608,550659	616,468201	-80,8073044	45125,7910	4,99844456	0,00582215283	0,000261524779	0,000254850194	3	11	0,0101900781	1,65297715E-005	0,000259146123	0,00160130986	0,00162214367	80,8073044
681286,5	302,611237	859,072754	910,812561	-70,5950165	45126,4410	4,99964523	0,00102282153	0,000271932047	0,000241914691	3	12	0,00942083541	1,03433304E-005	0,000364776643	0,00103555201	0,0010979207	70,5950165
464160,125	419,620239	1170,02026	1242,99182	-70,2699585	45126,8570	4,99964619	0,000986166648	0,000293061603	0,000259662454	3	12	0,01015874	8,17281307E-006	0,000271593803	0,000757280679	0,00080451055	70,2699585
316223,094	617,272217	1602,28918	1717,07764	-68,9311218	45127,1710	4,99962234	0,000978470314	0,000314112811	0,00027351905	3	12	0,0109805409	6,39490054E-006	0,000209361533	0,00054345181	0,000582384877	68,9311218
215441,859	927,642273	2150,26172	2341,8252	-66,6641998	45127,4850	4,99962425	0,000956555596	0,000343556952	0,000289649266	3	12	0,0109687652	4,68385315E-006	0,000169149818	0,000392086949	0,000427017367	66,6641998
146777,328	1386,98206	2800,55957	3125,19653	-63,6530037	45127,7990	4,99961424	0,00095277268	0,00038718307	0,000310921896	3	12	0,0108070318	3,45803278E-006	0,000142009114	0,00028674124	0,000319979881	63,6530037
100024,406	2014,13342	3494,84717	4033,69434	-60,0445023	45128,1130	4,99978065	0,000957151875	0,000455287751	0,000341771927	3	12	0,0104964515	2,60219304E-006	0,000123789054	0,000214794039	0,000247911696	60,0445023
68127,4297	2769,4375	4211,38281	5040,38965	-56,6707726	45128,6610	4,99959517	0,000791454688	0,000554719532	0,000387252861	3	13	0,00955422502	1,89553293E-006	0,000109009256	0,000165766396	0,000198397363	56,6707726
46411,125	3699,48706	5129,76025	6324,60645	-54,2015648	45128,9750	4,99958467	0,00078405207	0,000668499328	0,000439772528	3	13	0,0104551259	1,65308722E-006	9,24856722E-005	0,00012824194	0,000158112598	54,2015648
31628,4121	4733,48145	6149,70605	7760,45947	-52,4142113	45129,2890	4,99957609	0,000768251542	0,000818254484	0,000513833307	3	13	0,0105342977	1,35743221E-006	7,85969678E-005	0,00010211263	0,000128858344	52,4142113
21545,4082	5818,03809	7427,77686	9435,11719	-51,9290695	45129,6030	4,99958372	0,000758666487	0,000994503964	0,00061635318	3	13	0,0102962768	1,09127177E-006	6,53554744E-005	8,34380699E-005	0,000105987026	51,9290695
14672,8496	6864,32324	9125,62012	11419,1016	-53,0493889	45129,9170	4,9995923	0,000751385	0,00118862069	0,00075910904	3	13	0,0101436339	8,88304044E-007	5,26421791E-005	6,99839657E-005	8,75725673E-005	53,0493889
10015,2705	7989,41699	11604,9502	14089,2031	-55,454567	45130,1692	4,99962187	0,000742073928	0,00136934908	0,000929025991	3	13	0,0101060653	7,17291471E-007	4,02478072E-005	5,84615591E-005	7,09763335E-005	55,454567
6856,00244	9070,17676	15142,2256	17650,9238	-59,0784378	45130,5186	4,99963808	0,000730755681	0,00153306103	0,00112824643	3	13	0,00988905877	5,6025732E-007	2,91125907E-005	4,86020799E-005	5,66542585E-005	59,0784378
4642,42725	10482,7852	20529,0078	23050,5742	-62,9496536	45130,9698	4,99963331	0,000719550124	0,00166996382	0,00132458401	3	13	0,0090901861	3,94358324E-007	1,97293684E-005	3,86370957E-005	4,33828682E-005	62,9496536
3160,05566	12186,0186	28071,7148	30602,6172	-66,5341873	45131,4208	4,99963284	0,0007088618	0,00179414055	0,00150965329	3	13	0,00929879118	3,03856069E-007	1,30120179E-005	2,99744897E-005	3,26769441E-005	66,5341873
2152,93286	14918,916	38733,9453	41507,7422	-68,9351196	45132,1173	4,99962378	0,000681680103	0,00190852524	0,00166196993	3	14	0,0100106262	2,41174916E-007	8,65922539E-006	2,24819269E-005	2,40918907E-005	68,9351196
1468,58972	18506,3672	53873,3945	56963,3945	-71,0415878	45132,5683	4,99961758	0,000671919493	0,00201161718	0,00179929461	3	14	0,00975442398	1,71240217E-007	5,70334305E-006	1,66028494E-005	1,7555134E-005	71,0415878
999,040405	24078,5293	75265,9531	79023,6641	-72,2598724	45133,0193	4,99962759	0,000661825645	0,00211659865	0,00192008889	3	14	0,00959760044	1,21452231E-007	3,85580961E-006	1,20526975E-005	1,26544373E-005	72,2598724
681,089661	32696,6289	104709,344	109695,563	-72,6584625	45133,4698	4,99962997	0,000652876857	0,00223167217	0,00203340151	3	14	0,00951854698	8,67723955E-008	2,71722001E-006	8,70176427E-006	9,11613915E-006	72,6584625
464,553894	45918,8516	145139,016	152229,672	-72,4437561	45133,9213	4,99962521	0,000643441104	0,00236047758	0,00214570295	3	14	0,00947018154	6,22098284E-008	1,98149178E-006	6,26304518E-006	6,56902148E-006	72,4437561
316,315765	69209,3359	200676,344	212275,594	-70,9716873	45134,3703	4,99962711	0,000634116004	0,00250728172	0,00224076002	3	14	0,00945462659	4,45393944E-008	1,53590588E-006	4,45344449E-006	4,71085696E-006	70,9716873
215,344498	103280,047	269183,188	288316,406	-69,0092163	45134,8208	4,99963474	0,000625806395	0,00274560717	0,00239329133	3	14	0,00944158714	3,27473124E-008	1,24244673E-006	3,23824111E-006	3,46841171E-006	69,0092163
146,737289	156012,063	355149,25	387905,594	-66,28479	45135,2677	4,9996314	0,000618130201	0,00305399764	0,00255999109	3	14	0,00943688396	2,4327786E-008	1,03682657E-006	2,36025426E-006	2,57794682E-006	66,28479
99,9040375	253343,656	477420,438	540475,063	-62,0472946	45135,7193	4,99963236	0,000610993244	0,00333684543	0,00260367501	3	14	0,00943600945	1,74587331E-008	8,67278857E-007	1,63436744E-006	1,85022418E-006	62,0472946
68,1888962	378177,313	621918,375	727874	-58,6969719	45136,1814	4,99962711	0,000604787085	0,00375295244	0,00273985416	3	14	0,00943344086	1,29602657E-008	7,13810721E-007	1,17387265E-006	1,37386417E-006	58,6969719
46,3802681	492674,438	691713,375	849232,313	-54,5395432	45136,6201	4,99962759	0,000598391518	0,0049609025	0,00329124345	3	14	0,00943063572	1,11048948E-008	6,83135738E-007	9,59120484E-007	1,17753405E-006	54,5395432
31,5869217	785819,438	783997,938	1110029,25	-44,9335213	45137,0500	4,99962711	0,000592438737	0,00642684661	0,00320596597	3	14	0,00942840613	8,49383586E-009	6,37755022E-007	6,36276809E-007	9,00877183E-007	44,9335213
21,5220375	1017188,94	789269,063	1287485,5	-37,8090172	45137,4720	4,99963093	0,000586731359	0,00936939754	0,00352109014	3	14	0,00942878891	7,32341388E-009	6,13644602E-007	4,76146255E-007	7,76707793E-007	37,8090172
14,6851501	1263326,5	806329,313	1498719,75	-32,5484123	45137,9324	4,9996314	0,000580211577	0,0134409303	0,00389057095	3	14	0,00943230093	6,29357233E-009	5,62438174E-007	3,58981112E-007	6,67236179E-007	32,5484123
9,9904108	1390857,38	944188,125	1681063,75	-34,1707535	45138,3833	4,9996357	0,000574463862	0,0168724544	0,00532263843	3	14	0,00942977704	5,60941071E-009	4,92168965E-007	3,34110553E-007	5,94861433E-007	34,1707535
6,81718969	1671494,25	541864,188	1757131,13	-17,9616318	45138,7228	4,99964142	0,000569994736	0,0430848189	0,00409729127	3	14	0,00943706091	5,37072076E-009	5,41372913E-007	1,75502009E-007	5,69109488E-007	17,9616318
4,63925123	2562676	704874	2657848	-15,3791218	45139,2077	4,99964237	0,000564360933	0,0486699343	0,00342313061	3	14	0,00943074469	3,54826324E-009	3,62771715E-007	9,97817722E-008	3,7624423E-007	15,3791218
3,16039586	2083206,5	959389,125	2293507,5	-24,7277164	45139,9016	4,99964857	0,000556495914	0,0524908826	0,0091848718	3	14	0,00943046622	4,11180956E-009	3,96033556E-007	1,82387254E-007	4,36013408E-007	24,7277164
2,1522038	1655800,5	793688,625	1836196,38	-25,6101856	45140,9069	4,99964571	0,00054684846	0,0931722447	0,017407991	3	14	0,00943142641	5,13639309E-009	4,91099797E-007	2,35402965E-007	5,44604063E-007	25,6101856
1,46630979	1611414,25	342526,219	1647416,25	-12,0003252	45142,3684	4,99965048	0,0005352546	0,31688419	0,0136987688	3	14	0,00943294354	5,72590153E-009	5,93745767E-007	1,26208079E-007	6,07011145E-007	12,0003252
0,998529792	1569713,25	-371711,438	1613124	13,3223629	45144,5002	4,99965572	0,00051817717	-0,428798437	-0,0227682441	3	14	0,00942723453	5,84408566E-009	6,0323265E-007	-1,42846773E-007	6,1991517E-007	-13,3223629
1000024,25	294,393158	678,338745	739,466553	-66,5395737	66765,5749	4,99975777	0,000410160806	0,000234618885	0,000197432732	4	12	0,00528409192	7,14581574E-006	0,000538382155	0,00124053657	0,00135232625	66,5395737
681286,5	302,452179	859,55957	911,218933	-70,614624	66765,8889	4,99964046	0,000997273135	0,00027177803	0,000241835936	4	12	0,0103255371	1,13315655E-005	0,000364259729	0,00103521487	0,00109743106	70,614624
464160,125	421,764862	1168,7074	1242,48242	-70,1564255	66766,3049	4,99963427	0,000994086382	0,000293390825	0,000259583816	4	12	0,010207071	8,21506273E-006	0,000273205776	0,000757051224	0,000804840354	70,1564255
316223,094	611,142151	1603,42651	1715,94617	-69,1357727	66766,6189	4,99962807	0,000977259013	0,000313890021	0,000274074293	4	12	0,0109617207	6,38814936E-006	0,000207555844	0,000544554961	0,000582768873	69,1357727
215441,859	929,386597	2140,36353	2333,43433	-66,528595	66766,9329	4,99961519	0,000958680059	0,000345145731	0,000290393189	4	12	0,0109865433	4,70831492E-006	0,000170688902	0,000393093971	0,000428552885	66,528595
146777,328	1395,19202	2806,03271	3133,74854	-63,5629005	66767,2469	4,9995985	0,000951561437	0,000386427855	0,000309831521	4	12	0,0108090686	3,4492457E-006	0,000142071091	0,000285735645	0,00031910665	63,5629005
100024,406	2052,42554	3574,94507	4122,21826	-60,1392708	66767,5609	4,99954939	0,000896047917	0,000445086858	0,000334750745	4	12	0,010614953	2,57505849E-006	0,00012078289	0,000210381433	0,000242587834	60,1392708
68127,4297	2765,55151	4207,53027	5035,03564	-56,6836357	66768,1089	4,99958229	0,000812216371	0,000555227394	0,00038772187	4	13	0,0095128892	1,88933893E-006	0,000109087909	0,000165967154	0,000198608323	56,6836357
46411,125	3704,09985	5137,81738	6333,83936	-54,21035	66768,4229	4,99958086	0,000802118797	0,000667451008	0,000439180061	4	13	0,010453647	1,65044401E-006	9,23312255E-005	0,000128069165	0,000157882125	54,21035
31628,4121	4732,75635	6150,27441	7760,46777	-52,4210167	66768,7369	4,99956942	0,000795925735	0,000818178814	0,000513879699	4	13	0,0105401613	1,3581863E-006	7,85847587E-005	0,000102121863	0,000128858213	52,4210167
21545,4082	5783,51123	7443,43262	9426,22363	-52,1529655	66769,0509	4,99957609	0,000789948797	0,000992412213	0,000618818332	4	13	0,0102994051	1,09263317E-006	6,5090273E-005	8,37717889E-005	0,00010608702	52,1529655
14672,8496	6852,94043	9167,72852	11445,9619	-53,2216339	66769,3649	4,9995842	0,00077869388	0,00118316116	0,000759036746	4	13	0,0101538366	8,87110787E-007	5,23085109E-005	6,99773009E-005	8,73670579E-005	53,2216339
10015,2705	7863,32324	11671,0791	14072,8799	-56,0301056	66769,6171	4,99962139	0,000772910775	0,00136159023	0,000936488621	4	13	0,010100699	7,17742125E-007	3,97045405E-005	5,89311712E-005	7,1058661E-005	56,0301056
6856,00244	9062,14648	15224,3945	17717,3555	-59,2372589	66769,9666	4,99964046	0,000762865413	0,00152478681	0,00112587819	4	13	0,00988246407	5,57784347E-007	2,88691044E-005	4,85000564E-005	5,64418333E-005	59,2372589
4642,42725	10511,2686	20556,9023	23088,373	-62,9181786	66770,4178	4,99961948	0,000756500871	0,0016676978	0,00132204441	4	13	0,00909005571	3,93707069E-007	1,97182562E-005	3,85630156E-005	4,33118439E-005	62,9181786
3160,05566	12305,8662	28180,0508	30749,791	-66,4097214	66770,8688	4,99962664	0,000746422913	0,00178724318	0,00150100747	4	13	0,00929323398	3,02221054E-007	1,30145136E-005	2,98028262E-005	3,25205474E-005	66,4097214
2152,93286	15276,1426	38902,3633	41794,1914	-68,5611038	66771,5672	4,99962139	0,00072598469	0,00190026267	0,00164639403	4	14	0,0100045642	2,39376902E-007	8,74544457E-006	2,2271226E-005	2,39267702E-005	68,5611038
1468,58972	19238,8262	53975,3125	57301,543	-70,3820267	66772,0183	4,99962521	0,000717547082	0,00200781878	0,00178148516	4	14	0,00974892545	1,70133731E-007	5,85930229E-006	1,64385128E-005	1,74515371E-005	70,3820267
999,040405	25395,4082	74956,5156	79141,6797	-71,2835236	66772,4693	4,99961901	0,000709863903	0,00212533656	0,00190649624	4	14	0,00959670823	1,21259845E-007	4,05456876E-006	1,19673732E-005	1,26355671E-005	71,2835236
681,089661	35598,0898	103472,789	109425,055	-71,0150757	66772,9197	4,99962139	0,000702913268	0,00225834176	0,00201933528	4	14	0,00950983539	8,6907292E-008	2,97298766E-006	8,64156937E-006	9,13867461E-006	71,0150757
464,553894	51048,1523	142802,953	151652,891	-70,329422	66773,3712	4,99962044	0,000696107163	0,00239909161	0,00212725648	4	14	0,00947367866	6,24694891E-008	2,21961977E-006	6,20920264E-006	6,59400575E-006	70,329422
316,315765	76060,5859	193452,109	207867,578	-68,5364761	66773,8202	4,99962091	0,00069042953	0,00260091294	0,00225267862	4	14	0,00945398863	4,54808244E-008	1,76029766E-006	4,47713228E-006	4,81075494E-006	68,5364761
215,344498	116353,016	260280,313	285103,25	-65,9139404	66774,2708	4,99961424	0,000685901556	0,00283952057	0,00236659171	4	14	0,00944608822	3,31321672E-008	1,43144064E-006	3,20211552E-006	3,50750133E-006	65,9139404
146,737289	174817,531	335663,875	378459,25	-62,4889908	66774,7177	4,99961567	0,000678821816	0,00323128328	0,00254182704	4	14	0,00944004953	2,49433718E-008	1,22052518E-006	2,3435075E-006	2,64229243E-006	62,4889908
99,9040375	269037,813	424309,781	502414,313	-57,6228561	66775,1693	4,99961185	0,000671474321	0,00375451683	0,00267791096	4	14	0,00943668839	1,87826821E-008	1,06583332E-006	1,68096642E-006	1,99038914E-006	57,6228561
68,1888962	381352,813	499654,688	628557,688	-52,6479416	66775,6314	4,99961948	0,000666115142	0,00467128633	0,00295179477	4	14	0,00943392795	1,50088493E-008	9,65242975E-007	1,26467717E-006	1,59094384E-006	52,6479416
46,3802681	550933,625	547140,375	776460,188	-44,8020744	66776,0701	4,99961472	0,000660152582	0,00627174042	0,00311420532	4	14	0,00943132304	1,21465638E-008	9,13820429E-007	9,07528658E-007	1,287896E-006	44,8020744
31,5869217	746993,063	626779,5	975116	-39,9990044	66776,5000	4,9996233	0,000654751435	0,00803892594	0,00332135311	4	14	0,00943358708	9,67432268E-009	7,85604641E-007	6,59177317E-007	1,02551905E-006	39,9990044
21,5220375	909094,25	703235,625	1149344,5	-37,7239723	66776,9219	4,99961853	0,000649770955	0,0105156442	0,0039367443	4	14	0,00942812674	8,20304713E-009	6,88190198E-007	5,32353909E-007	8,70061172E-007	37,7239723
14,6851501	1150661,38	628197,25	1310974,25	-28,6320896	66777,3823	4,99962282	0,000644578657	0,0172522496	0,00396140711	4	14	0,00943484996	7,19682314E-009	6,69513327E-007	3,6551711E-007	7,62791501E-007	28,6320896
9,9904108	1286459,88	750469,188	1489356,63	-30,2575741	66777,8332	4,99961758	0,00063867314	0,0212277472	0,00538979517	4	14	0,00943074748	6,33209485E-009	5,79961124E-007	3,38326089E-007	6,71430882E-007	30,2575741
6,81718969	1614965,5	328102,438	1647957,75	-11,4841232	66778,1727	4,99962807	0,000634714903	0,0711549744	0,00282053859	4	14	0,00943461247	5,72503289E-009	5,94663277E-007	1,20814008E-007	6,06811682E-007	11,4841232
4,63925123	1861861,63	633904,688	1966815,63	-18,8020763	66778,6576	4,99962759	0,00062978745	0,0541188158	0,00562171591	4	14	0,00942945108	4,79427298E-009	4,8130471E-007	1,63868947E-007	5,08436074E-007	18,8020763
3,16039586	1663739,13	738728,188	1820370,13	-23,9420261	66779,3516	4,99963093	0,000622910215	0,0681701079	0,0112264883	4	14	0,00943482853	5,18291765E-009	5,02071828E-007	2,22928335E-007	5,49338836E-007	23,9420261
2,1522038	1434083,13	441654,844	1500551	-17,1172714	66780,3568	4,99963903	0,000613549841	0,167437881	0,0145050157	4	14	0,00943192746	6,28564267E-009	6,36902257E-007	1,961469E-007	6,6642184E-007	17,1172714
1,46630979	1487878	-17822,2559	1487984,75	0,686273515	66781,8184	4,99963951	0,000600697414	-6,09020281	-0,000873695593	4	14	0,0094292257	6,33691011E-009	6,72001704E-007	-8,04944111E-009	6,72049907E-007	-0,686273515
0,998529792	408307,625	-215167,734	461532,531	27,7880898	66783,9510	4,99964762	0,000472640473	-0,740767539	-0,161002129	4	14	0,00943001453	2,04319601E-008	1,9168267E-006	-1,01011892E-006	2,16669446E-006	-27,7880898
1000024,25	-9,6071806	506,340302	506,431427	-91,0869827	88522,1116	5,00113297	0,000923996151	0,00031431645	0,000314203353	5	11	0,00921498425	1,81959167E-005	-3,74587544E-005	0,00197424577	0,00197460107	91,0869827
681286,5	303,531372	854,746765	907,040955	-70,4494019	88522,7626	4,99966955	0,000435541617	0,000273308338	0,000242702357	5	12	0,00940591376	1,03698885E-005	0,000368935027	0,00103892363	0,00110248604	70,4494019
464160,125	421,242065	1166,31152	1240,05139	-70,141571	88523,1786	4,99966049	0,000417428353	0,000293993508	0,000260068366	5	12	0,0100903567	8,13704719E-006	0,000273938029	0,00075846439	0,000806418189	70,141571
316223,094	617,201843	1596,16321	1711,33728	-68,8595886	88523,4926	4,99963093	0,000427230261	0,00031531835	0,000274304301	5	12	0,0109970132	6,42597661E-006	0,000210744387	0,000545012008	0,000584338326	68,8595886
215441,859	934,042664	2132,11401	2327,73413	-66,342598	88523,8066	4,99962807	0,000425273553	0,00034648116	0,000290692435	5	12	0,0109670628	4,71147587E-006	0,000172385189	0,000393499067	0,00042960234	66,342598
146777,328	1392,01599	2771,04443	3101,03149	-63,3276367	88524,1206	4,99961996	0,000421826058	0,000391307054	0,000312458462	5	12	0,0108305514	3,49256402E-006	0,00014475442	0,000288158335	0,000322473352	63,3276367
100024,406	2056,66089	3493,0376	4053,53735	-59,5109062	88524,4346	4,99976301	0,000450505206	0,000455523608	0,000338258775	5	12	0,0106135029	2,61833111E-006	0,000125168284	0,000212586106	0,000246698095	59,5109062
68127,4297	2757,42285	4160,62744	4991,4126	-56,465889	88524,9826	4,99958086	0,000311181531	0,000561486522	0,000390130619	5	13	0,00949326623	1,90191975E-006	0,000110676752	0,00016699823	0,00020034409	56,465889
46411,125	3662,03564	5074,11182	6257,56445	-54,1816521	88525,2966	4,9995842	0,000310477015	0,000675830874	0,000444372767	5	13	0,0104685938	1,67295025E-006	9,3521594E-005	0,000129583394	0,000159806586	54,1816521
31628,4121	4672,27686	6098	7682,17236	-52,5407295	88525,6106	4,99958372	0,000310167641	0,000825192605	0,000519950583	5	13	0,0105109951	1,36823212E-006	7,9169964E-005	0,000103328304	0,000130171509	52,5407295
21545,4082	5698,97656	7370,48584	9316,78027	-52,2882347	88525,9246	4,99959421	0,00031046581	0,00100223441	0,000627234287	5	13	0,0103068566	1,10626809E-006	6,56546035E-005	8,49110875E-005	0,000107333217	52,2882347
14672,8496	6695,57275	9149,4502	11337,6865	-53,8033142	88526,2386	4,99959183	0,000308106391	0,00118552486	0,000772061292	5	13	0,0101773283	8,97654786E-007	5,20881367E-005	7,11780522E-005	8,82014137E-005	53,8033142
10015,2705	7705,20703	11625,9941	13947,543	-56,4653015	88526,4908	4,99962711	0,00030851824	0,00136687036	0,00094971247	5	13	0,0101212291	7,25663938E-007	3,96085452E-005	5,97633152E-005	7,16972136E-005	56,4653015
6856,00244	8786,97949	15348,9531	17686,1914	-60,2096939	88526,8402	4,99965382	0,000308115676	0,00151241303	0,00113909319	5	13	0,00989346113	5,59389036E-007	2,80912445E-005	4,90693274E-005	5,65412847E-005	60,2096939
4642,42725	10139,3291	20733,5117	23079,959	-63,9399338	88527,2914	4,99963522	0,000307525799	0,00165349222	0,00133437477	5	13	0,00909566227	3,94093519E-007	1,90343999E-005	3,89226843E-005	4,33276327E-005	63,9399338
3160,05566	11953,7588	28397,7109	30811,0742	-67,1717834	88527,7424	4,99963379	0,000306957372	0,00177354447	0,00150658994	5	13	0,00929835811	3,0178623E-007	1,25918859E-005	2,99136682E-005	3,24558641E-005	67,1717834
2152,93286	14377,0088	39525,8242	42059,3516	-70,011795	88528,4389	4,99963903	0,00029793079	0,00187028886	0,00165175425	5	14	0,010018588	2,3820121E-007	8,12724556E-006	2,23437346E-005	2,3775925E-005	70,011795
1468,58972	17633,2891	55189,3477	57937,8711	-72,281044	88528,8899	4,99963999	0,000297123886	0,00196365151	0,00178176269	5	14	0,00975325238	1,68339852E-007	5,25301039E-006	1,6441074E-005	1,72598684E-005	72,281044
999,040405	22800,7891	77022,7969	80326,75	-73,5098495	88529,3409	4,99964333	0,000296540646	0,00206832029	0,00190167362	5	14	0,00959432311	1,19441196E-007	3,53369842E-006	1,19371007E-005	1,24491526E-005	73,5098495
681,089661	31110,4336	108070,359	112459,156	-73,9403687	88529,7914	4,9996419	0,000295833364	0,00216226652	0,00199679192	5	14	0,00951580796	8,4615678E-008	2,4598944E-006	8,54509562E-006	8,89211697E-006	73,9403687
464,553894	43297,8359	149572,547	155713,359	-73,8554764	88530,2429	4,99963713	0,000295568752	0,00229050964	0,0021134119	5	14	0,00947201997	6,08298478E-008	1,78572463E-006	6,16879242E-006	6,42205669E-006	73,8554764
316,315765	61011,8867	208548,047	217289,531	-73,6928711	88530,6919	4,99963951	0,000294678815	0,00241264375	0,00222242856	5	14	0,00945210829	4,35000622E-008	1,29222121E-006	4,4170115E-006	4,6021546E-006	73,6928711
215,344498	89995,5859	286144,906	299963,531	-72,5410919	88531,1424	4,99963999	0,000294425554	0,00258285669	0,00235036574	5	14	0,00944111124	3,14741975E-008	1,00019395E-006	3,180161E-006	3,3337385E-006	72,5410919
146,737289	134364,875	388203,844	410799,406	-70,9082718	88531,5894	4,99964285	0,000293658086	0,00279395748	0,00249505346	5	14	0,00943465065	2,29665638E-008	7,96207246E-007	2,30038336E-006	2,43427803E-006	70,9082718
99,9040375	208480,953	525990,063	565800,188	-68,3786469	88532,0409	4,99964142	0,000293452438	0,00302872295	0,00261751073	5	14	0,00943231396	1,66707501E-008	6,5123885E-007	1,6430522E-006	1,76740843E-006	68,3786469
68,1888962	316361,938	685301,125	754799,625	-65,2201004	88532,5030	4,9996419	0,000292527489	0,00340584619	0,00280753104	5	14	0,00943123084	1,2495013E-008	5,55291194E-007	1,20286836E-006	1,32485491E-006	65,2201004
46,3802681	492141,188	955000,125	1074350,13	-62,7365456	88532,9418	4,99964571	0,000292649493	0,00359321688	0,0028392172	5	14	0,00943477824	8,78184725E-009	4,26381177E-007	8,27392796E-007	9,30795238E-007	62,7365456
31,5869217	876401,625	1119410,38	1421674,88	-51,9421234	88533,3717	4,9996376	0,00029151878	0,00450114999	0,00279062567	5	14	0,00942981616	6,63289201E-009	4,33613309E-007	5,53845666E-007	7,03395699E-007	51,9421234
21,5220375	1055855,25	1263345,75	1646472,88	-50,1124344	88533,7936	4,99963331	0,000291359349	0,00585348578	0,0034462742	5	14	0,00943175144	5,7284586E-009	3,89489031E-007	4,66029121E-007	6,07358913E-007	50,1124344
14,6851501	1618716	1343550,63	2103656,25	-39,6930161	88534,2540	4,99964571	0,000290472992	0,00806654803	0,00329038152	5	14	0,00943289883	4,48404958E-009	3,65780977E-007	3,03601894E-007	4,75362839E-007	39,6930161
9,9904108	2178450,25	1258328,13	2515757,25	-30,0118198	88534,7049	4,99964046	0,000290268188	0,0126602668	0,00316732936	5	14	0,00943098217	3,74876485E-009	3,44199435E-007	1,98818327E-007	3,97494631E-007	30,0118198
6,81718969	1917193,88	1319314,38	2327278	-34,5337524	88535,0444	4,99964523	0,000289519725	0,0176956467	0,0056867809	5	14	0,00943099614	4,05237177E-009	3,53972496E-007	2,43585703E-007	4,29686537E-007	34,5337524
4,63925123	2974843,5	1377614,88	3278340,5	-24,848299	88535,5293	4,99964142	0,000289212767	0,024902584	0,00439735921	5	14	0,00943148974	2,87690982E-009	2,76793571E-007	1,28179849E-007	3,05032387E-007	24,848299
3,16039586	3147769,75	898311,813	3273441,5	-15,9277077	88536,2232	4,99964428	0,000288412266	0,0560598001	0,00422178954	5	14	0,00943149067	2,88121549E-009	2,93760792E-007	8,38335694E-008	3,05488896E-007	15,9277077
2,1522038	3839941	1195678,13	4021789,75	-17,2955074	88537,2285	4,99965096	0,000287124072	0,0618475452	0,00546653708	5	14	0,00943330862	2,34554998E-009	2,37402773E-007	7,39223083E-008	2,48645506E-007	17,2955074
1,46630979	3546958,5	1451647,75	3832518,25	-22,2575912	88538,6899	4,99965143	0,000285453891	0,0747710019	0,0107272202	5	14	0,00943100546	2,46078558E-009	2,41483605E-007	9,88309026E-008	2,60925049E-007	22,2575912
0,998529792	3539076,25	1134361,88	3716428	-17,771946	88540,8217	4,99965334	0,000283166941	0,140510082	0,0130905919	5	14	0,00943160802	2,53781529E-009	2,56235012E-007	8,21296879E-008	2,69075571E-007	17,771946
1000024,25	150,769867	663,557556	680,470581	-77,1989136	110261,4554	4,99812269	0,00012048077	0,000239845191	0,000228070698	6	12	0,00480120536	7,05571347E-006	0,000325608475	0,00143304525	0,00146957126	77,1989136
681286,5	300,904968	855,399841	906,781494	-70,6195984	110261,7694	4,99963236	0,000426988176	0,000273099664	0,000243026821	6	12	0,0103072748	1,13668784E-005	0,000365951972	0,00104031258	0,00110280153	70,6195984
464160,125	419,592865	1163,14258	1236,51074	-70,163559	110262,1854	4,99963236	0,000436696893	0,000294794503	0,000260849192	6	12	0,0101457462	8,20514197E-006	0,000274430495	0,00076074159	0,000808727287	70,163559
316223,094	614,616699	1596,81396	1711,01392	-68,9481888	110262,4994	4,99961615	0,000430565909	0,000315189856	0,000274519873	6	12	0,0109655559	6,4088058E-006	0,000209941034	0,000545440358	0,000584448804	68,9481888
215441,859	926,793335	2141,92554	2333,83618	-66,6022644	110262,8134	4,99961615	0,000429671403	0,000344894012	0,000290505035	6	12	0,0109614702	4,6967607E-006	0,000170154017	0,000393245369	0,000428479078	66,6022644
146777,328	1379,79309	2769,98511	3094,61572	-63,5210533	110263,1274	4,99960995	0,000430249056	0,000391456677	0,00031363545	6	12	0,0108300922	3,49965649E-006	0,000144078935	0,000289243733	0,000323141896	63,5210533
100024,406	2018,07141	3492,44043	4033,57813	-59,9789658	110263,4414	4,99947023	0,000390444824	0,00045560149	0,000341556239	6	12	0,0106506385	2,6404939E-006	0,000124038226	0,000214658474	0,000247918826	59,9789658
68127,4297	2748,60034	4174,08643	4997,77979	-56,635437	110263,9894	4,99957895	0,000307735492	0,000559676031	0,000390395988	6	13	0,00945870671	1,89258174E-006	0,000110041721	0,000167111837	0,000200088849	56,635437
46411,125	3670,20728	5074,06836	6262,31494	-54,1207924	110264,3034	4,99956322	0,000308082177	0,000675836636	0,000443695026	6	13	0,0104747219	1,67265966E-006	9,35881326E-005	0,000129385764	0,000159685354	54,1207924
31628,4121	4666,24561	6116,19727	7692,96533	-52,6588135	110264,6174	4,99958467	0,000307571492	0,000822737464	0,000520039932	6	13	0,0105249276	1,36812366E-006	7,88460675E-005	0,000103346058	0,000129988883	52,6588135
21545,4082	5699,34521	7387,97412	9330,84668	-52,3521347	110264,9314	4,99958229	0,000305730151	0,000999861863	0,000626828405	6	13	0,0103223082	1,10625638E-006	6,5461034E-005	8,48561467E-005	0,000107171414	52,3521347
14672,8496	6678,69043	9153,97266	11331,3779	-53,885704	110265,2454	4,999578	0,00030785476	0,00118493917	0,000773303211	6	13	0,0101768784	8,9811482E-007	5,2014675E-005	7,12925539E-005	8,82505192E-005	53,885704
10015,2705	7675,85449	11703,8291	13996,3691	-56,7414818	110265,4977	4,99960756	0,000306423433	0,00135778019	0,000949411828	6	13	0,01012633	7,23496896E-007	3,91828435E-005	5,97443977E-005	7,14471025E-005	56,7414818
6856,00244	8738,87988	15361,7969	17673,5059	-60,3657112	110265,8481	4,99964476	0,000304503803	0,00151114841	0,00114168355	6	13	0,00989646278	5,5996037E-007	2,79775923E-005	4,91809151E-005	5,658187E-005	60,3657112
4642,42725	10160,1133	21026,0684	23352,1621	-64,209465	110266,2993	4,99963665	0,000305159832	0,00163048564	0,0013218401	6	13	0,00909788627	3,89595044E-007	1,86313518E-005	3,85570565E-005	4,28225867E-005	64,209465
3160,05566	11750,9443	28930,9473	31226,3418	-67,8943787	110266,7503	4,99962854	0,000303445209	0,00174085563	0,00149432768	6	13	0,00929815881	2,97766519E-007	1,20512086E-005	2,96701965E-005	3,20242434E-005	67,8943787
2152,93286	14302,8232	39955,3945	42438,2422	-70,3041687	110267,4468	4,99962425	0,000293780729	0,00185018091	0,00164002436	6	14	0,0100137396	2,35960286E-007	7,94158132E-006	2,21850623E-005	2,35636526E-005	70,3041687
1468,58972	17879,5586	55541,625	58348,5273	-72,1559677	110267,8978	4,99962282	0,000293109071	0,0019511967	0,00176798448	6	14	0,00975032151	1,67104844E-007	5,25166524E-006	1,63139357E-005	1,71383926E-005	72,1559677
999,040405	22753,5098	78130,0625	81375,8516	-73,7630615	110268,3488	4,99962282	0,000292327721	0,00203900808	0,00187959452	6	14	0,00959347468	1,17890927E-007	3,43603347E-006	1,17985073E-005	1,22886577E-005	73,7630615
681,089661	31072,2578	108742,891	113095,102	-74,053215	110268,7993	4,99962187	0,000291861157	0,00214889389	0,00198668544	6	14	0,00951297954	8,41148662E-008	2,42932219E-006	8,50184733E-006	8,84211568E-006	74,053215
464,553894	42506,2227	151365,516	157220,547	-74,3142853	110269,2508	4,99962187	0,000291073287	0,00226337789	0,00209793658	6	14	0,00947345886	6,02558572E-008	1,71962517E-006	6,12362192E-006	6,36049162E-006	74,3142853
316,315765	60932,7344	210666,484	219301,547	-73,8681259	110269,6997	4,99962378	0,00029041362	0,00238838233	0,00220399885	6	14	0,00945139211	4,30976996E-008	1,26697284E-006	4,38038296E-006	4,55993131E-006	73,8681259
215,344498	87666,3672	286848,75	299946	-73,005867	110270,1503	4,99962807	0,000289894699	0,00257651904	0,00235642237	6	14	0,009437792	3,14649711E-008	9,74421255E-007	3,18835623E-006	3,33393336E-006	73,005867
146,737289	141288,906	398651,844	422949	-70,4848175	110270,5972	4,99962473	0,00028922889	0,00272073271	0,00241711549	6	14	0,00943887793	2,23168222E-008	7,89827254E-007	2,22852645E-006	2,3643513E-006	70,4848175
99,9040375	214806,875	540657,625	581766,875	-68,331749	110271,0488	4,99962616	0,000288937503	0,00294655655	0,00254484569	6	14	0,00943105854	1,62110609E-008	6,34673199E-007	1,59743934E-006	1,71890156E-006	68,331749
68,1888962	337519,688	702612,25	779476,438	-64,3413773	110271,5109	4,99962568	0,000287567527	0,00332193216	0,00269908272	6	14	0,00943185017	1,21002381E-008	5,55511633E-007	1,15640432E-006	1,28291242E-006	64,3413773
46,3802681	495110,219	1001026	1116775,38	-63,6828728	110271,9496	4,99962711	0,000287562376	0,00342800561	0,00275423215	6	14	0,00943137147	8,44518233E-009	3,96981505E-007	8,02626914E-007	8,95435221E-007	63,6828728
31,5869217	699551,813	1092258,75	1297074,38	-57,3619232	110272,3795	4,99961901	0,000286786439	0,00461304095	0,0032712114	6	14	0,00943334959	7,27278993E-009	4,15805403E-007	6,49225797E-007	7,70965812E-007	57,3619232
21,5220375	1117213,88	1316878	1726943,63	-49,6893692	110272,8014	4,99961615	0,000286453491	0,00561553612	0,00326532172	6	14	0,00943094026	5,46105872E-009	3,74610551E-007	4,41559479E-007	5,79057712E-007	49,6893692
14,6851501	1638605	1493381,75	2217028,5	-42,3452225	110273,2619	4,99962425	0,000285448594	0,00725723058	0,00329283555	6	14	0,00943023618	4,25354774E-009	3,33374004E-007	3,03828358E-007	4,51054206E-007	42,3452225
9,9904108	1823253,88	1602293,63	2427261,75	-41,3093262	110273,7128	4,99962282	0,00028516681	0,00994247943	0,00433257082	6	14	0,00942873955	3,88451715E-009	3,09466714E-007	2,71962421E-007	4,11986889E-007	41,3093262
6,81718969	2270193,75	1399769,5	2667046	-31,6573982	110274,0523	4,99963427	0,000284588052	0,0166785475	0,00459420355	6	14	0,0094331	3,53690921E-009	3,19155191E-007	1,96786587E-007	3,74946666E-007	31,6573982
4,63925123	3317435	1507096,13	3643722,5	-24,4320889	110274,5371	4,99962187	0,000284223061	0,0227630939	0,00389423897	6	14	0,00942703802	2,58719979E-009	2,49868691E-007	1,1351424E-007	2,74444602E-007	24,4320889
3,16039586	3633572	1366615,88	3882072,25	-20,6116867	110275,2311	4,99962807	0,000282943423	0,0368495472	0,0045666513	6	14	0,00943633076	2,43074583E-009	2,41105198E-007	9,06816169E-008	2,57594394E-007	20,6116867
2,1522038	3437172,5	906650,063	3554739	-14,7767792	110276,2364	4,9996376	0,000281731831	0,0815637186	0,00530592352	6	14	0,00942986738	2,65275935E-009	2,72010652E-007	7,17503923E-008	2,81314612E-007	14,7767792
1,46630979	3385442,75	790148,625	3476428,75	-13,1374245	110277,6978	4,99964237	0,000280205684	0,137368008	0,00709637487	6	14	0,00942838658	2,71208966E-009	2,80123032E-007	6,53795738E-008	2,87651517E-007	13,1374245
0,998529792	4121637,5	252684,859	4129376	-3,50823617	110279,8296	4,99963951	0,00027755482	0,630782902	0,00236194325	6	14	0,00943149161	2,28399921E-009	2,41713536E-007	1,48187089E-008	2,42167346E-007	3,50823617
1000024,25	155,91629	705,355408	722,382263	-77,535408	131997,2387	5,00005245	0,00126034254	0,000225632466	0,000215121327	7	12	0,00488789845	6,76636E-006	0,000298783969	0,00135167991	0,00138430868	77,535408
681286,5	301,609619	854,984375	906,623779	-70,5688782	131997,5527	4,9996438	0,000452872104	0,000273232377	0,000242993294	7	12	0,0103151742	1,13775686E-005	0,000366936583	0,00104016915	0,00110299338	70,5688782
464160,125	418,547699	1162,35278	1235,41333	-70,1967316	131997,9687	4,99962568	0,000433938927	0,000294994796	0,00026113537	7	12	0,0102057718	8,26101768E-006	0,000274233404	0,00076157623	0,000809445686	70,1967316
316223,094	617,103943	1591,19067	1706,66492	-68,8024521	131998,2827	4,99961615	0,000408073538	0,000316303747	0,000274949067	7	12	0,0109300315	6,40432199E-006	0,000211866238	0,0005462931	0,000585938105	68,8024521
215441,859	920,535583	2129,88574	2320,30151	-66,6260223	131998,5967	4,99960661	0,000409359316	0,000346843648	0,000292252022	7	12	0,0109600145	4,72353031E-006	0,000170982545	0,000395610201	0,000430978485	66,6260223
146777,328	1406,15356	2767,39111	3104,14575	-63,0641823	131998,9107	4,99958038	0,000419701682	0,000391823618	0,000311420707	7	12	0,0108319782	3,48951971E-006	0,000145931335	0,000287201256	0,000322149834	63,0641823
100024,406	2049,86206	3485,1792	4043,31665	-59,537426	131999,2247	4,99952507	0,00044970389	0,000456550712	0,000339206192	7	12	0,010663758	2,63737888E-006	0,000125386025	0,000213181542	0,000247321703	59,537426
68127,4297	2746,53149	4164,2002	4988,38623	-56,5928345	131999,7727	4,99957275	0,000305702211	0,000561004737	0,000390939531	7	13	0,00954187289	1,91281765E-006	0,000110373396	0,000167344493	0,000200465627	56,5928345
46411,125	3639,55054	5059,93164	6232,91553	-54,2729683	132000,0867	4,99957228	0,000304580259	0,000677724893	0,000446642691	7	13	0,0104593392	1,67808139E-006	9,36839715E-005	0,000130245331	0,000160438562	54,2729683
31628,4121	4634,31836	6081,53174	7646,04053	-52,6914597	132000,4007	4,99957037	0,000307981536	0,000827427197	0,000523458817	7	13	0,0105194934	1,37580923E-006	7,92706996E-005	0,000104025494	0,000130786648	52,6914597
21545,4082	5649,97412	7376,36621	9291,55469	-52,5494652	132000,7147	4,99956274	0,000307701936	0,00100143533	0,000631147821	7	13	0,0103233168	1,11104305E-006	6,54439791E-005	8,5440879E-005	0,000107624619	52,5494652
14672,8496	6656,92383	9186,6123	11344,9756	-54,0716667	132001,0287	4,99957228	0,000305556809	0,00118072913	0,000774201355	7	13	0,0101828286	8,9756287E-007	5,17209446E-005	7,1375347E-005	8,81447486E-005	54,0716667
10015,2705	7637,49561	11723,9863	13992,2549	-56,9180946	132001,2809	4,99960709	0,000304136658	0,00135544583	0,000951606373	7	13	0,0101275826	7,23799189E-007	3,90099631E-005	5,98824954E-005	7,14681082E-005	56,9180946
6856,00244	8650,44336	15488,1689	17740,168	-60,8157921	132001,6313	4,99963284	0,000303476903	0,00149881863	0,00114244095	7	13	0,00990285631	5,58216584E-007	2,74867198E-005	4,92135441E-005	5,6369252E-005	60,8157921
4642,42725	9981,52246	20955,4941	23211,2793	-64,5306015	132002,0825	4,99961805	0,000302858156	0,00163597683	0,00133344403	7	13	0,00909744855	3,91940858E-007	1,85267236E-005	3,88955341E-005	4,30825021E-005	64,5306015
3160,05566	11737,249	28898,5137	31191,1387	-67,8952713	132002,5335	4,99962378	0,000301512569	0,00174280943	0,00149602361	7	13	0,00929979328	2,98154987E-007	1,20643472E-005	2,97038714E-005	3,20603867E-005	67,8952713
2152,93286	14172,3877	40188,5898	42614,3086	-70,5749512	132003,2300	4,99961519	0,000291837205	0,00183944532	0,00163599325	7	14	0,0100138262	2,34987425E-007	7,80426763E-006	2,21305327E-005	2,34662966E-005	70,5749512
1468,58972	17694,543	56166,4883	58887,7852	-72,5136261	132003,6810	4,99961615	0,00029170973	0,00192948931	0,00175528042	7	14	0,00975247938	1,6561124E-007	5,10256859E-006	1,61967109E-005	1,69814502E-005	72,5136261
999,040405	22751,4297	78506,3906	81736,6563	-73,8382263	132004,1320	4,99962282	0,000290583761	0,00202923384	0,00187201088	7	14	0,00959424116	1,17379905E-007	3,40545307E-006	1,17509035E-005	1,22344127E-005	73,8382263
681,089661	30642,8086	109757,641	113954,906	-74,401001	132004,5825	4,99961567	0,000289872783	0,00212902646	0,0019750793	7	14	0,00951049384	8,34583957E-008	2,35973152E-006	8,45217892E-006	8,7754006E-006	74,401001
464,553894	43080,9805	151785,219	157780,625	-74,154541	132005,0340	4,99961042	0,000289285555	0,0022571194	0,00208884478	7	14	0,00947300345	6,00390777E-008	1,73052683E-006	6,09708377E-006	6,33791387E-006	74,154541
316,315765	62548,6602	212836,75	221837,359	-73,6229401	132005,4830	4,99961805	0,000288343552	0,00236402825	0,00217608851	7	14	0,00945185311	4,26071303E-008	1,27100918E-006	4,32491152E-006	4,50780681E-006	73,6229401
215,344498	87526,7188	292088,438	304920,625	-73,318718	132005,9335	4,99961615	0,000287653238	0,00253029983	0,00232181232	7	14	0,00944359601	3,09706714E-008	9,41384599E-007	3,1415268E-006	3,27954194E-006	73,318718
146,737289	137057,063	396457,219	419479,406	-70,9294968	132006,3804	4,99960566	0,000286851195	0,00273579336	0,00244373805	7	14	0,00943781529	2,24988757E-008	7,78897288E-007	2,2530719E-006	2,38390726E-006	70,9294968
99,9040375	207284,234	540977,625	579330,25	-69,0348663	132006,8320	4,99961329	0,000286621798	0,00294481358	0,00256781653	7	14	0,00943177938	1,62804881E-008	6,17609317E-007	1,61185835E-006	1,72613113E-006	69,0348663
68,1888962	310839,719	708796,813	773960,125	-66,3203583	132007,2942	4,99961185	0,000285821443	0,00329294661	0,00276179239	7	14	0,00943002664	1,21841248E-008	5,18918739E-007	1,18327205E-006	1,29205625E-006	66,3203583
46,3802681	507760,781	862878,188	1001189,19	-59,5253105	132007,7329	4,99960756	0,000285600603	0,00397683308	0,00295395614	7	14	0,00943175424	9,42055145E-009	5,06555295E-007	8,60829573E-007	9,98812197E-007	59,5253105
31,5869217	855093,125	1140086,63	1425125,13	-53,1291962	132008,1628	4,99960852	0,000284677022	0,00441951863	0,00282842526	7	14	0,00943164248	6,61811539E-009	4,21024538E-007	5,61347576E-007	7,01692784E-007	53,1291962
21,5220375	1133017,63	1246550,38	1684522,75	-47,7315941	132008,5847	4,99961376	0,000283960457	0,00593235204	0,00324857445	7	14	0,00943509676	5,60105029E-009	3,99284914E-007	4,3929478E-007	5,93639925E-007	47,7315941
14,6851501	1591210,25	1508697,25	2192742	-43,4752655	132009,0451	4,99962568	0,0002827321	0,00718355877	0,00340070366	7	14	0,00943759363	4,30401448E-009	3,3094247E-007	3,13781271E-007	4,56050003E-007	43,4752655
9,9904108	2221696,25	1529845,13	2697473	-34,5510368	132009,4960	4,99962187	0,000282661757	0,0104133226	0,00334942341	7	14	0,00943146832	3,49640872E-009	3,05330701E-007	2,10248672E-007	3,70717345E-007	34,5510368
6,81718969	2428153,75	1828579	3039676,25	-36,9824448	132009,8355	4,99962473	0,000282377703	0,0127673568	0,00462033879	7	14	0,00942867994	3,10186987E-009	2,6279767E-007	1,97906033E-007	3,28982395E-007	36,9824448
4,63925123	2523957,75	1563924	2969212,25	-31,7836647	132010,3204	4,9996314	0,000281029003	0,0219359584	0,00608562818	7	14	0,00943168998	3,17649573E-009	2,86285655E-007	1,77391655E-007	3,36789668E-007	31,7836647
3,16039586	3393714,5	1610010,13	3756252,25	-25,3801041	132011,0143	4,99963522	0,00028030781	0,0312787965	0,00574642513	7	14	0,00942825992	2,51001775E-009	2,40528095E-007	1,14108794E-007	2,66222798E-007	25,3801041
2,1522038	4249329,5	707368,313	4307803,5	-9,45112705	132012,0196	4,99963522	0,000278732681	0,104542084	0,00281884079	7	14	0,00943168812	2,18944241E-009	2,28985854E-007	3,81183263E-008	2,3213687E-007	9,45112705
1,46630979	4334498,5	786326,188	4405245,5	-10,2822676	132013,4810	4,99964046	0,000277251325	0,138035789	0,00439801719	7	14	0,00943390653	2,14151652E-009	2,23356523E-007	4,05193532E-008	2,27002104E-007	10,2822676
0,998529792	5017856	1470059,75	5228762	-16,3287754	132015,6128	4,99964142	0,000274481892	0,10842368	0,008570306	7	14	0,00943206809	1,80388171E-009	1,83535633E-007	5,37696501E-008	1,91249853E-007	16,3287754
1000024,25	3,1633451	613,635437	613,643616	-89,7046356	153731,8727	4,99924374	-0,00305469567	0,000259357737	0,000259350811	8	11	0,0101916622	1,66084392E-005	8,40073608E-006	0,00162958866	0,00162961031	89,7046356
681286,5	300,044464	851,607544	902,91864	-70,5912552	153732,5227	4,99997568	0,000342087413	0,000274315797	0,000244024035	8	12	0,0094037205	1,04148039E-005	0,000368034351	0,00104458129	0,00110751949	70,5912552
464160,125	417,66925	1160,57642	1233,44446	-70,2071686	153732,9387	4,99997473	0,000333925214	0,000295446313	0,000261569367	8	12	0,0100843469	8,17576074E-006	0,000274532184	0,000762841955	0,00081073778	70,2071686
316223,094	613,831848	1588,37622	1702,85889	-68,8708496	153733,2527	4,99995995	0,000332974741	0,0003168642	0,000275691011	8	12	0,0109930588	6,45564887E-006	0,000211686027	0,000547767209	0,00058724772	68,8708496
215441,859	928,019409	2126,81519	2320,46606	-66,4263229	153733,5667	4,99995041	0,000350640621	0,000347344379	0,0002917893	8	12	0,0109770093	4,73051932E-006	0,000172348125	0,000394983799	0,000430947897	66,4263229
146777,328	1386,44287	2759,45435	3088,17285	-63,3235016	153733,8807	4,99993896	0,000346075045	0,000392950606	0,00031374814	8	12	0,0108244279	3,50512369E-006	0,000145378028	0,000289347663	0,000323816057	63,3235016
100024,406	1990,98169	3487,35156	4015,67285	-60,2773018	153734,1947	4,99980211	0,000309550553	0,000456266338	0,000344106782	8	12	0,0105687976	2,63188713E-006	0,000123466918	0,00021626144	0,000249024277	60,2773018
68127,4297	2737,95898	4144,84521	4967,51074	-56,5524597	153734,7427	4,9999156	0,00029876738	0,000563624431	0,000392399845	8	13	0,00952597614	1,91765594E-006	0,000110955625	0,0001679696	0,000201308067	56,5524597
46411,125	3639,94702	5050,71582	6225,66846	-54,2204819	153735,0567	4,99992943	0,000298793428	0,000678961456	0,000446867751	8	13	0,0104450174	1,6777343E-006	9,39124366E-005	0,00013031096	0,000160625321	54,2204819
31628,4121	4626,71875	6088,31348	7646,83496	-52,7675476	153735,3707	4,99992275	0,000297231658	0,000826505478	0,000523933675	8	13	0,0105222529	1,37602717E-006	7,91242637E-005	0,000104119856	0,000130773056	52,7675476
21545,4082	5617,90723	7374,13867	9270,31836	-52,6984291	153735,6847	4,99991941	0,00029978677	0,0010017379	0,000633851334	8	13	0,0103365323	1,11501367E-006	6,53710231E-005	8,58068524E-005	0,000107871158	52,6984291
14672,8496	6600,44336	9192,41113	11316,6367	-54,3204498	153735,9987	4,99992657	0,000295904698	0,00117998431	0,000778574788	8	13	0,0100671053	8,89584555E-007	5,15392821E-005	7,17785515E-005	8,83654793E-005	54,3204498
10015,2705	7569,9292	11727,292	13958,2666	-57,1578865	153736,2509	4,99997044	0,000294594502	0,00135506364	0,000956515956	8	13	0,0100036869	7,16685463E-007	3,88533845E-005	6,01914435E-005	7,16421346E-005	57,1578865
6856,00244	8628,46582	15525,627	17762,1934	-60,9366035	153736,6003	4,99999809	0,000294111785	0,00149520254	0,00114236563	8	13	0,00977131817	5,50118898E-007	2,7348935E-005	4,92102918E-005	5,62993519E-005	60,9366035
4642,42725	9905,28516	21195,1055	23395,4512	-64,9515152	153737,2665	4,99996614	0,00029301687	0,00161748193	0,00132754049	8	13	0,00991145615	4,23648856E-007	1,80968964E-005	3,8723334E-005	4,27433515E-005	64,9515152
3160,05566	11709,627	29116,5625	31382,9512	-68,0917969	153737,7175	4,99997139	0,000292211742	0,00172975787	0,00148894254	8	13	0,0101385098	3,2305789E-007	1,18892776E-005	2,95632763E-005	3,18644343E-005	68,0917969
2152,93286	14099,416	40405,6211	42794,9492	-70,7637253	153738,4140	4,99997282	0,000291125994	0,00182956504	0,00163097156	8	14	0,0109115625	2,54973145E-007	7,69867711E-006	2,20626025E-005	2,33672436E-005	70,7637253
1468,58972	17584,1602	56528,4336	59200,2227	-72,7207794	153738,8650	4,99996519	0,00029000474	0,0019171352	0,00174799399	8	14	0,0106209069	1,79406541E-007	5,01735622E-006	1,61294756E-005	1,68918286E-005	72,7207794
999,040405	22435,4688	79373,9141	82483,75	-74,2167664	153739,3160	4,9999671	0,000289514777	0,0020070551	0,00185856642	8	14	0,0104527529	1,26724998E-007	3,29760292E-006	1,16665115E-005	1,21235998E-005	74,2167664
681,089661	30413,0957	111370,289	115448,25	-74,7260284	153739,7665	4,99996614	0,000288752606	0,00209819805	0,00195258739	8	14	0,0103685213	8,98109889E-008	2,28184354E-006	8,35592709E-006	8,6618893E-006	74,7260284
464,553894	41949,4063	154757,25	160342	-74,833519	153740,2180	4,99996233	0,000288241048	0,00221377262	0,00206224597	8	14	0,0103235859	6,43847926E-008	1,6316659E-006	6,01944384E-006	6,23666892E-006	74,833519
316,315765	62831,4297	213072,469	222143,344	-73,5701141	153740,6670	4,99996138	0,000287524745	0,00236141309	0,00217250106	8	14	0,0103009455	4,63707153E-008	1,27324006E-006	4,31778199E-006	4,50159769E-006	73,5701141
215,344498	92683,1875	294095,406	308354,156	-72,5079269	153741,1175	4,99995947	0,000286727445	0,00251303241	0,00228599343	8	14	0,0102911573	3,3374473E-008	9,74768227E-007	3,09306188E-006	3,24302414E-006	72,5079269
146,737289	143023,141	395166,25	420252,281	-70,1032104	153741,5645	4,99996233	0,000285858143	0,00274473079	0,00242682989	8	14	0,0102843782	2,4471916E-008	8,09815617E-007	2,2374827E-006	2,37952304E-006	70,1032104
99,9040375	223339,156	537057,313	581645	-67,4196625	153742,0160	4,99996185	0,000285058632	0,00296630966	0,00252895872	8	14	0,0102809109	1,76755766E-008	6,60159515E-007	1,58746661E-006	1,71926172E-006	67,4196625
68,1888962	345886,438	713826,688	793212,438	-64,1473846	153742,4781	4,99996471	0,000284552458	0,00326974364	0,00264801364	8	14	0,0102802999	1,29603359E-008	5,49736342E-007	1,13452415E-006	1,26069631E-006	64,1473846
46,3802681	491174,406	1008453,81	1121709,13	-64,0312805	153742,9168	4,99996376	0,000283673813	0,00340275653	0,00275031454	8	14	0,0102806333	9,16515042E-009	3,90368911E-007	8,01485157E-007	8,91496711E-007	64,0312805
31,5869217	725577,75	1172230	1378617,5	-58,2436447	153743,3468	4,99995899	0,000283280679	0,00429833261	0,00310769281	8	14	0,0102798054	7,45660422E-009	3,81765261E-007	6,16772866E-007	7,25364373E-007	58,2436447
21,5220375	1160877,25	1356100	1785117,13	-49,4351196	153743,7687	4,99996328	0,000282517576	0,00545311999	0,00314698764	8	14	0,0102795083	5,75845016E-009	3,64294692E-007	4,25557545E-007	5,60187345E-007	49,4351196
14,6851501	1589215,13	1482773,88	2173527,75	-43,0155563	153744,2291	4,99996567	0,000281952147	0,00730914902	0,00340162404	8	14	0,0102766622	4,72810235E-009	3,36397136E-007	3,13866195E-007	4,60081537E-007	43,0155563
9,9904108	1735635,63	1572401,5	2341981,5	-42,1750488	153744,6800	4,99996424	0,000281177403	0,0101314904	0,0045670243	8	14	0,0102820694	4,39032899E-009	3,16440179E-007	2,86679438E-007	4,26988862E-007	42,1750488
6,81718969	2147366,25	1508560,63	2624297,5	-35,0886803	153745,0195	4,99997568	0,000280954991	0,0154757584	0,00511388993	8	14	0,0102782678	3,91657862E-009	3,11802779E-007	2,19046655E-007	3,81054349E-007	35,0886803
4,63925123	2870787,25	1193354,88	3108941,25	-22,5721226	153745,5044	4,9999671	0,000279953994	0,0287476666	0,00423561828	8	14	0,0102777639	3,30587269E-009	2,97013372E-007	1,23465213E-007	3,21652919E-007	22,5721226
3,16039586	3381358	1465385,88	3685232,5	-23,4305573	153746,1983	4,99997377	0,00027892919	0,0343658142	0,00543376524	8	14	0,0102781923	2,78902146E-009	2,4897821E-007	1,07900185E-007	2,71353287E-007	23,4305573
2,1522038	3438149	1075237,75	3602361	-17,366415	153747,2036	4,99997139	0,000277675019	0,068775259	0,00612726668	8	14	0,0102810934	2,85398749E-009	2,64941633E-007	8,28571558E-008	2,77595717E-007	17,366415
1,46630979	3292585,5	1099374,5	3471274	-18,4638538	153748,6651	4,99996853	0,00027564849	0,0987299159	0,00990289729	8	14	0,0102809742	2,96172931E-009	2,73249441E-007	9,12363376E-008	2,88078667E-007	18,4638538
0,998529792	3539249	613740,063	3592069	-9,83781147	153750,7968	4,99996853	0,000272841164	0,25970161	0,00758148404	8	14	0,0102786664	2,86148905E-009	2,74297463E-007	4,75658375E-008	2,78391099E-007	9,83781147
1000024,25	69,9149017	547,951843	552,394165	-82,7287369	177068,3837	5,00124168	-0,00299072475	0,000290447235	0,000285794493	9	11	0,00959804282	1,73753524E-005	0,000229124635	0,00179574324	0,00181030156	82,7287369
681286,5	289,892242	846,829834	895,074463	-71,1025696	177069,0337	5,00046349	0,000148768566	0,000275863451	0,000246926764	9	12	0,00934251584	1,04376968E-005	0,000361841405	0,00105700688	0,0011172255	71,1025696
464160,125	409,264069	1155,21948	1225,573	-70,4920959	177069,4497	5,00046444	0,000148116262	0,000296816346	0,0002637172	9	12	0,0100389421	8,19122306E-006	0,000272474106	0,000769105915	0,000815944863	70,4920959
316223,094	603,261902	1584,1626	1695,13892	-69,1527634	177069,7637	5,00043535	0,000142395278	0,000317707018	0,000277469808	9	12	0,010994276	6,48576679E-006	0,000209940044	0,000551301462	0,000589922129	69,1527634
215441,859	919,144775	2120,79907	2311,40991	-66,568306	177070,0777	5,00043583	0,000142656107	0,000348329719	0,000293248391	9	12	0,0109733371	4,74746457E-006	0,000172040236	0,000396958931	0,000432636385	66,568306
146777,328	1386,87085	2759,24414	3088,17725	-63,3146591	177070,3917	5,00043011	0,000138295509	0,000392980524	0,000313723373	9	12	0,0108532514	3,51445237E-006	0,000145422498	0,000289324817	0,000323815621	63,3146591
100024,406	1941,98535	3463,62891	3970,89819	-60,72155	177070,7057	5,00028181	0,000101621932	0,000459391304	0,000349516748	9	12	0,0105844857	2,66551433E-006	0,00012315964	0,000219661451	0,000251832185	60,72155
68127,4297	2796,73901	4219,78174	5062,44092	-56,4648323	177071,0197	5,00042582	0,000147128434	0,000553615391	0,000384652172	9	12	0,0104692001	2,06801428E-006	0,000109126944	0,00016465316	0,000197533169	56,4648323
46411,125	3603,54956	5018,26025	6178,06641	-54,3183479	177071,5677	5,00039768	0,000104308318	0,000683352642	0,000450864551	9	13	0,00961679313	1,55660246E-006	9,44116036E-005	0,000131476467	0,000161862947	54,3183479
31628,4121	4575,86182	6036,19922	7574,57666	-52,8353233	177071,8817	5,00038862	0,000106872772	0,000833641272	0,000529406883	9	13	0,0104044536	1,373602E-006	7,97546745E-005	0,000105207531	0,000132020577	52,8353233
21545,4082	5564,31836	7342,48828	9212,69629	-52,8442535	177072,1957	5,0003953	0,000107247375	0,00100605597	0,000639050442	9	13	0,010345309	1,12294038E-006	6,55599288E-005	8,65106849E-005	0,000108545857	52,8442535
14672,8496	6504,6416	9136,87207	11215,7383	-54,5525093	177072,5097	5,00040293	0,00010723991	0,00118715689	0,000787857105	9	13	0,0100865848	8,99324164E-007	5,17091794E-005	7,2634306E-005	8,91604286E-005	54,5525093
10015,2705	7417,36621	11773,6699	13915,3379	-57,7892342	177072,7620	5,00043583	0,000107426276	0,00134972588	0,000966232852	9	13	0,0100192949	7,20018079E-007	3,83055922E-005	6,08029077E-005	7,18631491E-005	57,7892342
6856,00244	8435,6084	15572,1377	17710,1934	-61,5550804	177073,1124	5,00046349	0,000105810439	0,00149073661	0,00115252612	9	13	0,00978038367	5,52246036E-007	2,68948897E-005	4,96479843E-005	5,6464658E-005	61,5550804
4642,42725	9671,51758	21283,4219	23377,8164	-65,5622177	177073,7785	5,00044727	0,000108160573	0,00161077012	0,00133508397	9	13	0,0099196583	4,24319268E-007	1,76964713E-005	3,89433735E-005	4,27755949E-005	65,5622177
3160,05566	11283,9541	29424,2793	31513,7402	-69,0186157	177074,2295	5,0004468	0,000108087886	0,0017116681	0,00149221474	9	13	0,0101376269	3,216891E-007	1,13621745E-005	2,96282451E-005	3,17321901E-005	69,0186157
2152,93286	13915,2363	40875,3906	43179,0625	-71,199852	177074,9261	5,00044441	0,000106357315	0,00180853845	0,00162070931	9	14	0,0109174289	2,52840806E-007	7,46352816E-006	2,19237845E-005	2,31593731E-005	71,199852
1468,58972	17222,1367	57149,8203	59688,3906	-73,2297821	177075,3771	5,00044441	0,000106164422	0,00189629011	0,00173842034	9	14	0,0106275501	1,78050541E-007	4,83400754E-006	1,60411364E-005	1,67536764E-005	73,2297821
999,040405	21998,4727	80352,2578	83309,1719	-74,689003	177075,8281	5,00044537	0,000106411739	0,00198261789	0,00184437633	9	14	0,0104561215	1,25509843E-007	3,169617E-006	1,15774374E-005	1,20034802E-005	74,689003
681,089661	29947,7754	112679,68	116591,508	-75,1161346	177076,2785	5,00044727	0,00010638313	0,00207381602	0,001936991	9	14	0,0103673842	8,89205793E-008	2,20308198E-006	8,28918382E-006	8,57695431E-006	75,1161346
464,553894	41477,7383	156887,516	162277,828	-75,1910324	177076,7301	5,00044537	0,000105733452	0,00218371348	0,00204105186	9	14	0,0103269638	6,36375503E-008	1,57505849E-006	5,95758183E-006	6,16227135E-006	75,1910324
316,315765	58918,9883	217779,203	225608,578	-74,8613434	177077,1790	5,00044346	0,000105680891	0,00231037708	0,00215280382	9	14	0,0103049921	4,56764191E-008	1,15756166E-006	4,27863461E-006	4,43245563E-006	74,8613434
215,344498	83981,1719	299691,594	311236,063	-74,3457794	177077,6295	5,0004468	0,000106095467	0,00246610632	0,00228655199	9	14	0,01029013	3,30621397E-008	8,66966275E-007	3,0938179E-006	3,21299535E-006	74,3457794
146,737289	129139,086	417339	436862,375	-72,8061295	177078,0765	5,00045538	0,000105892235	0,0025989064	0,00237180688	9	14	0,0102904057	2,35552573E-008	6,76656668E-007	2,18675268E-006	2,28905037E-006	72,8061295
99,9040375	187094,953	561281,875	591643,375	-71,5649567	177078,5280	5,00044394	0,000106175423	0,00283828541	0,00255445414	9	14	0,0102862529	1,73859007E-008	5,34493154E-007	1,60347054E-006	1,69020734E-006	71,5649567
68,1888962	293711,406	767454,938	821738,063	-69,0577316	177078,9902	5,00045252	0,000105974323	0,00304126018	0,00265272683	9	14	0,01028575	1,25170665E-008	4,34964733E-007	1,13654346E-006	1,21693279E-006	69,0577316
46,3802681	528370,438	951340,063	1088220,25	-60,9523811	177079,4289	5,00045013	0,000106333086	0,00360704074	0,00275669713	9	14	0,0102787456	9,44546485E-009	4,4617471E-007	8,03345188E-007	9,18931619E-007	60,9523811
31,5869217	675521,313	1265544,38	1434549,25	-61,9076271	177079,8588	5,00044632	0,000105600287	0,00398139656	0,00309855561	9	14	0,0102805775	7,16641679E-009	3,28252554E-007	6,1495939E-007	6,97083067E-007	61,9076271
21,5220375	887577,5	1612797,75	1840899,38	-61,1745148	177080,2807	5,00044584	0,000106045991	0,00458518509	0,00351930223	9	14	0,010281777	5,58519231E-009	2,6190645E-007	4,75904528E-007	5,43212764E-007	61,1745148
14,6851501	1230755,38	1787268,88	2170043,5	-55,4477882	177080,7412	5,00045443	0,000105873689	0,00606389763	0,00411334168	9	14	0,0102802236	4,73733541E-009	2,61357428E-007	3,79536033E-007	4,60820246E-007	55,4477882
9,9904108	2004891,88	2130593,75	2925580,5	-46,741024	177081,1921	5,00044966	0,000105772495	0,00747715076	0,00396564044	9	14	0,0102807162	3,51407725E-009	2,34243103E-007	2,48929609E-007	3,41812495E-007	46,741024
6,81718969	2617906	2499780	3619714,25	-43,6777382	177081,5315	5,00045204	0,000105817504	0,00933927018	0,004454182	9	14	0,010285099	2,84141177E-009	1,99804589E-007	1,90788938E-007	2,76264899E-007	43,6777382
4,63925123	3143756,5	2716478,25	4154811,5	-40,8298607	177082,0164	5,00045681	0,000105849183	0,0126289139	0,00539853377	9	14	0,0102826096	2,47486787E-009	1,8211523E-007	1,57363345E-007	2,40684813E-007	40,8298607
3,16039586	3722367,5	3471387	5089847,5	-43,0018349	177082,7103	5,000453	0,000105966108	0,0145069333	0,00674795406	9	14	0,0102807535	2,01985495E-009	1,43684431E-007	1,33996508E-007	1,96469543E-007	43,0018349
2,1522038	5518269,5	2857456,5	6214206	-27,3759098	177083,7156	5,00045872	0,000105270257	0,0258795731	0,00547198718	9	14	0,0102850301	1,65508351E-009	1,42899793E-007	7,39960129E-008	1,60921601E-007	27,3759098
1,46630979	5718146,5	2271351,25	6152742	-21,6638718	177085,1772	5,00046396	0,000105260187	0,0477870405	0,00651240349	9	14	0,0102840001	1,67144998E-009	1,51049008E-007	5,9999401E-008	1,62529162E-007	21,6638718
0,998529792	7029555,5	2666155,5	7518180,5	-20,7706318	177087,3087	5,0004673	0,000105089523	0,0597824417	0,00751829008	9	14	0,0102827055	1,36771194E-009	1,24366196E-007	4,71693546E-008	1,330109E-007	20,7706318
1000024,25	117,554131	690,138672	700,078796	-80,3333511	200225,2307	5,00001669	0,00187805342	0,000230607417	0,000224105301	10	12	0,00473468518	6,76307445E-006	0,000239852408	0,00140812923	0,00142841064	80,3333511
681286,5	290,498383	846,536377	894,993347	-71,0597687	200225,5447	4,99983454	0,000153017347	0,000275959086	0,000246885931	10	12	0,0102010025	1,13978531E-005	0,000362663763	0,00105683214	0,00111732678	71,0597687
464160,125	406,916779	1154,62744	1224,23279	-70,5863953	200225,9607	4,99982786	0,000156837414	0,00029696853	0,000264159462	10	12	0,0100712534	8,2265833E-006	0,000271504803	0,000770395796	0,000816838117	70,5863953
316223,094	604,613525	1587,34326	1698,59241	-69,1483383	200226,2747	4,99981642	0,000151694097	0,0003170704	0,00027689751	10	12	0,0109939827	6,47240768E-006	0,000209555699	0,000550164434	0,00058872276	69,1483383
215441,859	905,629395	2123,91113	2308,93115	-66,9067459	200226,5887	4,99981022	0,000153408473	0,000347819325	0,000294309604	10	12	0,010976526	4,75394245E-006	0,00016987462	0,000398395438	0,000433100824	66,9067459
146777,328	1374,88794	2760,35474	3083,80859	-63,52285	200226,9027	4,99979925	0,000165427977	0,000392822432	0,000314739475	10	12	0,0108057773	3,50403639E-006	0,000144574762	0,000290261931	0,000324274355	63,52285
100024,406	1987,53809	3472,67676	4001,22363	-60,2159386	200227,2167	4,99966478	0,000147557046	0,000458194409	0,000345138076	10	12	0,0106939059	2,67265887E-006	0,000124145168	0,000216909568	0,000249923556	60,2159386
68127,4297	2782,97998	4230,91602	5064,15137	-56,6641846	200227,5307	4,99980354	0,000150892694	0,000552158512	0,000385406631	10	12	0,0104704611	2,06756476E-006	0,000108516731	0,000164976111	0,000197466448	56,6641846
46411,125	3604,10425	5013,12012	6174,21582	-54,2863426	200228,0787	4,99975824	0,000107944412	0,000684053288	0,000450964697	10	13	0,00962426141	1,55878286E-006	9,45439533E-005	0,000131505672	0,000161963893	54,2863426
31628,4121	4568,26416	6041,07178	7573,875	-52,9033928	200228,3927	4,99975967	0,000108007771	0,000832968799	0,000529932382	10	13	0,010402808	1,37351196E-006	7,9637015E-005	0,00010531197	0,000132032816	52,9033928
21545,4082	5541,25391	7349,91455	9204,71289	-52,9865952	200228,7067	4,9997592	0,000107802756	0,00100503943	0,000640806917	10	13	0,0103506045	1,1244897E-006	6,54014802E-005	8,67484632E-005	0,000108640001	52,9865952
14672,8496	6488,64404	9134,28125	11204,3564	-54,6114693	200229,0207	4,99977493	0,000109112938	0,00118749356	0,000789234764	10	13	0,0100847138	9,00070802E-007	5,16868604E-005	7,27613151E-005	8,92509997E-005	54,6114693
10015,2705	7383,10059	11832,416	13946,9082	-58,0369797	200229,2730	4,9998107	0,000107692787	0,00134302478	0,000966662774	10	13	0,0100215776	7,18551917E-007	3,79562116E-005	6,0829967E-005	7,17004805E-005	58,0369797
6856,00244	8443,51563	15650,4854	17782,875	-61,652916	200229,6234	4,99983501	0,000106941712	0,00148327393	0,00114887557	10	13	0,00977496896	5,49684387E-007	2,67004962E-005	4,9490729E-005	5,62338755E-005	61,652916
4642,42725	9667,5332	21248,5059	23344,3828	-65,5356674	200230,2896	4,99981451	0,000107879147	0,00161341706	0,00133671437	10	13	0,00991703756	4,24814715E-007	1,7739887E-005	3,89909328E-005	4,28368585E-005	65,5356674
3160,05566	11180,8398	29497,2969	31545,2324	-69,2409744	200230,7405	4,99981642	0,000107566048	0,00170743105	0,00149293244	10	13	0,0101365065	3,21332436E-007	1,12358766E-005	2,96424932E-005	3,17005106E-005	69,2409744
2152,93286	13859,7227	41075,7266	43350,9766	-71,3546371	200231,4381	4,9998188	0,000106627835	0,00179971766	0,00161576096	10	14	0,0109118214	2,51708769E-007	7,37491064E-006	2,18568439E-005	2,30675305E-005	71,3546371
1468,58972	17159,6797	57472,8516	59979,8555	-73,375946	200231,8891	4,99981213	0,000106535117	0,00188563205	0,001731297	10	14	0,0106253941	1,77149374E-007	4,76977903E-006	1,59754054E-005	1,66722639E-005	73,375946
999,040405	22140,7539	80352,6641	83347,25	-74,5947342	200232,3401	4,99981499	0,000106574254	0,00198260788	0,00184270076	10	14	0,0104577178	1,25471658E-007	3,18720436E-006	1,156692E-005	1,19979959E-005	74,5947342
681,089661	29309,2793	113020,898	116759,398	-75,4619522	200232,7906	4,99981499	0,000106568194	0,00206755497	0,00193727331	10	14	0,0103692617	8,88087968E-008	2,14991564E-006	8,29039163E-006	8,56462066E-006	75,4619522
464,553894	41508,7031	157541,156	162917,734	-75,2392578	200233,2421	4,99981403	0,000106155108	0,00217465311	0,00203348673	10	14	0,0103194946	6,33417514E-008	1,56387671E-006	5,93549976E-006	6,13806696E-006	75,2392578
316,315765	58393,8281	218554,297	226220,734	-75,041008	200233,6911	4,9998126	0,00010646131	0,00230218354	0,00214878935	10	14	0,0103052743	4,55540672E-008	1,14104319E-006	4,27065561E-006	4,42046121E-006	75,041008
215,344498	88089,9141	305470,094	317917,938	-73,913765	200234,1416	4,99980927	0,000106077023	0,00241945544	0,00223370059	10	14	0,0102948546	3,23821148E-008	8,71557688E-007	3,02230751E-006	3,14546583E-006	73,913765
146,737289	124469,555	411637,406	430044,219	-73,1759109	200234,5885	4,99981594	0,000106409221	0,00263490388	0,00241417205	10	14	0,0102876779	2,39223716E-008	6,73033696E-007	2,22581252E-006	2,32534217E-006	73,1759109
99,9040375	201319,719	563647,438	598521,563	-70,344635	200235,0401	4,99981451	0,00010644798	0,00282637356	0,00250659999	10	14	0,0102838948	1,71821632E-008	5,61987633E-007	1,57343186E-006	1,6707836E-006	70,344635
68,1888962	281391,625	743320,25	794799,5	-69,2653198	200235,5022	4,99982119	0,000106423198	0,00314000621	0,00274642184	10	14	0,0102875056	1,29435227E-008	4,45446915E-007	1,17668662E-006	1,25817894E-006	69,2653198
46,3802681	472566,531	1086599,38	1184912,38	-66,4955826	200235,9409	4,99982977	0,000106197782	0,00315803848	0,00265572942	10	14	0,0102801425	8,67586714E-009	3,3658165E-007	7,73921613E-007	8,43944235E-007	66,4955826
31,5869217	683342,813	1353848,5	1516530	-63,2180519	200236,3708	4,99982452	0,000106377724	0,00372171216	0,00296606659	10	14	0,0102834562	6,78091183E-009	2,9712325E-007	5,88664818E-007	6,59400087E-007	63,2180519
21,5220375	1044133,63	1670961,63	1970362,38	-57,9999771	200236,7927	4,99981642	0,000106506785	0,00442558108	0,00318281236	10	14	0,0102778357	5,2162159E-009	2,68945229E-007	4,30401968E-007	5,07520838E-007	57,9999771
14,6851501	1786563,75	2256363,5	2878017,75	-51,6282082	200237,2532	4,99982357	0,00010624242	0,00480322214	0,00295232306	10	14	0,0102819325	3,57257446E-009	2,15690775E-007	2,72409409E-007	3,47461366E-007	51,6282082
9,9904108	2334705	2160931,25	3181268,75	-42,7863998	200237,7041	4,99981689	0,000106370637	0,0073721786	0,00340155116	10	14	0,0102845235	3,23283711E-009	2,30691327E-007	2,13520821E-007	3,14339985E-007	42,7863998
6,81718969	3410167,75	4303578,5	5490904,5	-51,6065979	200238,0435	4,99982357	0,000105940686	0,0054248157	0,0033323965	10	14	0,0102808932	1,87234961E-009	1,13106594E-007	1,4273877E-007	1,82119351E-007	51,6065979
4,63925123	3574123,25	2782047,5	4529254,5	-37,8966904	200238,5284	4,99982214	0,000106019055	0,0123312669	0,00465246756	10	14	0,0102833863	2,27043695E-009	1,74227253E-007	1,35616048E-007	2,20786887E-007	37,8966904
3,16039586	5077560	2605025,75	5706818	-27,1599445	200239,2224	4,99982595	0,00010579751	0,0193315484	0,00402812194	10	14	0,0102797626	1,80131254E-009	1,559075E-007	7,99878421E-008	1,75229005E-007	27,1599445
2,1522038	4974439	1848131	5306659	-20,3813171	200240,2277	4,99982309	0,000105891682	0,0400132649	0,00485318806	10	14	0,0102801546	1,93721794E-009	1,76645159E-007	6,56281856E-008	1,88442485E-007	20,3813171
1,46630979	5415547,5	2323793	5893061	-23,2240067	200241,6892	4,99982977	0,000105612868	0,0467086136	0,00726289861	10	14	0,0102833183	1,7449876E-009	1,55941066E-007	6,69137847E-008	1,69691106E-007	23,2240067
0,998529792	7800407	2753507,75	8272131	-19,4427986	200243,8219	4,99983501	0,000105436469	0,0578859001	0,00641372893	10	14	0,0102844769	1,24326816E-009	1,13994119E-007	4,02394029E-008	1,20887833E-007	19,4427986
1000024,25	197,397842	654,504211	683,623901	-73,2167358	223393,0682	5,00013447	0,00160031824	0,000243162824	0,000222888455	11	12	0,00496211555	7,25854579E-006	0,000422384532	0,00140048331	0,00146279263	73,2167358
681286,5	289,927979	845,469299	893,79895	-71,0721512	223393,3822	4,99981833	0,000147855448	0,000276307372	0,000247234158	11	12	0,0102960691	1,15194462E-005	0,000362919673	0,00105832273	0,00111881981	71,0721512
464160,125	407,362122	1151,6283	1221,55298	-70,5199356	223393,7982	4,99982119	0,000153315414	0,000297741935	0,000264630566	11	12	0,0100518437	8,22874154E-006	0,000272995821	0,00077176973	0,000818630098	70,5199356
316223,094	601,070435	1583,45715	1693,70068	-69,2135544	223394,2142	4,99979401	0,000134158632	0,000317848549	0,000277817482	11	12	0,010030794	5,92241258E-006	0,00020953278	0,000551992271	0,000590423122	69,2135544
215441,859	910,778992	2117,5437	2305,10522	-66,7269287	223394,5282	4,99979687	0,000146457649	0,000348865229	0,000294402096	11	12	0,0108247567	4,69599263E-006	0,000171408145	0,00039852073	0,000433819689	66,7269287
146777,328	1379,85718	2748,45679	3075,3894	-63,3411522	223394,8422	4,99977922	0,000145805374	0,00039452294	0,000315101061	11	12	0,0108099263	3,51497806E-006	0,000145892816	0,000290595373	0,00032516208	63,3411522
100024,406	1990,28149	3469,94556	4000,21777	-60,1624031	223395,1562	4,99961042	0,000133841735	0,000458555063	0,000345040084	11	12	0,0104920063	2,6228588E-006	0,000124379047	0,000216847984	0,000249986391	60,1624031
68127,4297	2762,32324	4275,73926	5090,41992	-57,1356888	223395,4702	4,99979019	0,000140065807	0,000546370109	0,000385480264	11	12	0,0104721459	2,05722631E-006	0,000106602478	0,000165007616	0,00019644745	57,1356888
46411,125	3604,66309	5026,1709	6185,14258	-54,3527107	223396,0182	4,99975395	0,000109757799	0,000682277081	0,000450542604	11	13	0,00962372031	1,55594159E-006	9,4224808E-005	0,000131382578	0,000161677759	54,3527107
31628,4121	4562,27344	6040,85938	7570,09375	-52,938591	223396,3322	4,99974823	0,000111302797	0,000832998136	0,000530443271	11	13	0,010412842	1,37552354E-006	7,96120512E-005	0,000105413499	0,000132098765	52,938591
21545,4082	5530,48047	7360,01953	9206,30762	-53,0779953	223396,6462	4,99975681	0,000106570849	0,00100365956	0,000641465653	11	13	0,0103594624	1,12525697E-006	6,52517047E-005	8,68376374E-005	0,000108621178	53,0779953
14672,8496	6464,98682	9154,88379	11207,4951	-54,7710609	223396,9602	4,99975014	0,000108645152	0,00118482113	0,00079057191	11	13	0,0100922957	9,00495252E-007	5,14695748E-005	7,28845916E-005	8,92260068E-005	54,7710609
10015,2705	7440,39453	11792,0508	13943,168	-57,7494278	223397,2124	4,99979019	0,00011022557	0,00134762202	0,000963882019	11	13	0,0100153731	7,18299702E-007	3,8271286E-005	6,06549729E-005	7,17197108E-005	57,7494278
6856,00244	8393,27637	15713,96	17815,0391	-61,8920479	223397,5628	4,99981642	0,000106842934	0,00147728238	0,00114937371	11	13	0,00977887399	5,48911203E-007	2,64458758E-005	4,95121858E-005	5,61323504E-005	61,8920479
4642,42725	9688,75684	21447,2539	23534,1602	-65,6890182	223398,2290	4,99980307	0,000106908163	0,00159846572	0,00132754515	11	13	0,00991743803	4,21406071E-007	1,74932538E-005	3,87234722E-005	4,24914251E-005	65,6890182
3160,05566	11308,9688	29710,0273	31789,5977	-69,1609344	223398,6800	4,99979591	0,000107399239	0,00169520546	0,00148067041	11	13	0,0101351375	3,18819303E-007	1,11905874E-005	2,93990306E-005	3,14568315E-005	69,1609344
2152,93286	13834,9473	41280,5586	43537,2305	-71,4717178	223399,3765	4,99979734	0,00010656083	0,00179078756	0,00160995452	11	14	0,0109140323	2,50682746E-007	7,29887324E-006	2,17782999E-005	2,29688467E-005	71,4717178
1468,58972	17334,0078	57866,4609	60406,9141	-73,3243179	223399,8275	4,99979162	0,000106448264	0,00187280576	0,00171859399	11	14	0,0106275147	1,75932087E-007	4,75034994E-006	1,58581915E-005	1,6554397E-005	73,3243179
999,040405	22214,1973	81171,6406	84156,4375	-74,6946487	223400,2785	4,99978924	0,000106691194	0,00196260447	0,00182585686	11	14	0,0104580857	1,2426959E-007	3,13657688E-006	1,14611876E-005	1,1882632E-005	74,6946487
681,089661	30380,1328	113696,031	117684,922	-75,0397949	223400,7290	4,99979496	0,000106235711	0,00205527782	0,00191831309	11	14	0,0103687095	8,81056721E-008	2,19355297E-006	8,20925379E-006	8,4972653E-006	75,0397949
464,553894	41758,207	158001,109	163426,125	-75,195755	223401,1805	4,99979258	0,000106182313	0,00216832245	0,00202675466	11	14	0,0103273569	6,31928145E-008	1,56350393E-006	5,91585012E-006	6,11897258E-006	75,195755
316,315765	59976,9492	218065,281	226163	-74,6215515	223401,6295	4,99980021	0,000106751861	0,00230734609	0,00214507617	11	14	0,0103026684	4,55541738E-008	1,17257673E-006	4,26327597E-006	4,42158989E-006	74,6215515
215,344498	89152,3281	300182	313141,125	-73,4588852	223402,0800	4,99979019	0,000105884588	0,00246207742	0,00226251129	11	14	0,0102915969	3,28656817E-008	9,09185303E-007	3,06128959E-006	3,19344826E-006	73,4588852
146,737289	132694,984	415112,469	435805,375	-72,2729874	223402,5270	4,99979544	0,000105558363	0,00261284621	0,00237061083	11	14	0,0102870492	2,36046862E-008	6,98665417E-007	2,18564992E-006	2,29460215E-006	72,2729874
99,9040375	206194,219	566922,063	603255,063	-70,0132599	223402,9785	4,99979401	0,000106160696	0,00281004794	0,00248175277	11	14	0,0102838865	1,70473271E-008	5,66597237E-007	1,55783482E-006	1,65767358E-006	70,0132599
68,1888962	312019,719	765278,813	826442,938	-67,8182831	223403,4406	4,99979591	0,000106358522	0,00304990821	0,00261517288	11	14	0,010285941	1,24460389E-008	4,56831714E-007	1,12045382E-006	1,21000494E-006	67,8182831
46,3802681	448764,719	1100737,88	1188702,5	-67,8195496	223403,8794	4,99979067	0,000106211395	0,00311747496	0,00267315679	11	14	0,0102809984	8,64892513E-009	3,17594072E-007	7,79000175E-007	8,41253382E-007	67,8195496
31,5869217	627217,375	1308415,25	1450983,13	-64,3882523	223404,3093	4,99979877	0,00010612081	0,00385094411	0,00313136517	11	14	0,0102857957	7,08884595E-009	2,97915705E-007	6,21471031E-007	6,89187914E-007	64,3882523
21,5220375	1046791	1509605,25	1837030	-55,2617722	223404,7312	4,9997921	0,000106096959	0,00489861565	0,00330801657	11	14	0,010282482	5,59734037E-009	3,10189762E-007	4,47332923E-007	5,44356908E-007	55,2617722
14,6851501	1371451,38	2171499	2568323,75	-57,724762	223405,1916	4,99980354	0,000105791129	0,00499093765	0,0035678111	11	14	0,0102847731	4,0044692E-009	2,07912649E-007	3,29200191E-007	3,89359002E-007	57,724762
9,9904108	1744199,25	2192208,5	2801429,75	-51,4929924	223405,6425	4,99980879	0,00010620906	0,00726699596	0,00444999151	11	14	0,010283797	3,67091024E-009	2,22247351E-007	2,79333079E-007	3,56960584E-007	51,4929924
6,81718969	2655917,5	1944559,13	3291687,75	-36,2101326	223405,9820	4,99980021	0,000106371197	0,0120058684	0,00418985123	11	14	0,0102737527	3,12112003E-009	2,45119196E-007	1,7946671E-007	3,03795531E-007	36,2101326
4,63925123	3676986,25	2529237,75	4462877	-34,522377	223406,4668	4,9998126	0,000106005362	0,0135638379	0,00435644342	11	14	0,0102835558	2,30424368E-009	1,84612958E-007	1,2698716E-007	2,24070703E-007	34,522377
3,16039586	4580431,5	3084488,75	5522175,5	-33,9565506	223407,1608	4,99981499	0,000105731473	0,0163265876	0,00509379432	11	14	0,0102822967	1,862001E-009	1,50205551E-007	1,01149276E-007	1,81088055E-007	33,9565506
2,1522038	4619774,5	3046322	5533750,5	-33,401226	223408,1662	4,99981689	0,000105529638	0,0242750943	0,00735653657	11	14	0,0102819018	1,85803495E-009	1,50862618E-007	9,94801965E-008	1,80709264E-007	33,401226
1,46630979	5724625	2551873,75	6267646,5	-24,0259418	223409,6276	4,99981499	0,000105596679	0,0425339043	0,00705090119	11	14	0,0102799842	1,64016656E-009	1,45726332E-007	6,49606235E-008	1,59549515E-007	24,0259418
0,998529792	6454330	2557038,75	6942393	-21,6121922	223411,7604	4,99982452	0,000105403866	0,0623335429	0,00845625438	11	14	0,0102793286	1,48066071E-009	1,33916089E-007	5,30540945E-008	1,44042545E-007	21,6121922