F900P2-400  Original Data
 3151 
 12            223 
 12.02         200 
 12.04         201 
 12.06         176 
 12.08         205 
 12.1          218 
 12.12         178 
 12.14         247 
 12.16         216 
 12.18         189 
 12.2          200 
 12.22         179 
 12.24         195 
 12.26         198 
 12.28         191 
 12.3          203 
 12.32         222 
 12.34         197 
 12.36         183 
 12.38         204 
 12.4          203 
 12.42         226 
 12.44         197 
 12.46         186 
 12.48         198 
 12.5          214 
 12.52         206 
 12.54         204 
 12.56         200 
 12.58         236 
 12.6          184 
 12.62         195 
 12.64         215 
 12.66         198 
 12.68         229 
 12.7          181 
 12.72         207 
 12.74         194 
 12.76         218 
 12.78         196 
 12.8          215 
 12.82         218 
 12.84         215 
 12.86         197 
 12.88         183 
 12.9          204 
 12.92         185 
 12.94         220 
 12.96         212 
 12.98         205 
 13            235 
 13.02         176 
 13.04         222 
 13.06         205 
 13.08         224 
 13.1          226 
 13.12         210 
 13.14         202 
 13.16         212 
 13.18         204 
 13.2          193 
 13.22         198 
 13.24         176 
 13.26         197 
 13.28         231 
 13.3          222 
 13.32         211 
 13.34         207 
 13.36         212 
 13.38         221 
 13.4          226 
 13.42         200 
 13.44         210 
 13.46         231 
 13.48         199 
 13.5          206 
 13.52         192 
 13.54         179 
 13.56         191 
 13.58         178 
 13.6          166 
 13.62         169 
 13.64         172 
 13.66         163 
 13.68         158 
 13.7          165 
 13.72         159 
 13.74         166 
 13.76         168 
 13.78         185 
 13.8          162 
 13.82         167 
 13.84         178 
 13.86         152 
 13.88         186 
 13.9          159 
 13.92         172 
 13.94         170 
 13.96         142 
 13.98         151 
 14            146 
 14.02         164 
 14.04         164 
 14.06         169 
 14.08         157 
 14.1          153 
 14.12         160 
 14.14         159 
 14.16         161 
 14.18         186 
 14.2          151 
 14.22         154 
 14.24         153 
 14.26         154 
 14.28         147 
 14.3          166 
 14.32         173 
 14.34         164 
 14.36         160 
 14.38         183 
 14.4          180 
 14.42         174 
 14.44         188 
 14.46         189 
 14.48         229 
 14.5          197 
 14.52         211 
 14.54         222 
 14.56         265 
 14.58         263 
 14.6          308 
 14.62         292 
 14.64         359 
 14.66         363 
 14.68         373 
 14.7          471 
 14.72         548 
 14.74         589 
 14.76         666 
 14.78         779 
 14.8          871 
 14.82         980 
 14.84         1126 
 14.86         1228 
 14.88         1242 
 14.9          1285 
 14.92         1290 
 14.94         1105 
 14.96         945 
 14.98         774 
 15            579 
 15.02         502 
 15.04         364 
 15.06         259 
 15.08         198 
 15.1          163 
 15.12         178 
 15.14         140 
 15.16         131 
 15.18         139 
 15.2          142 
 15.22         107 
 15.24         124 
 15.26         103 
 15.28         105 
 15.3          116 
 15.32         122 
 15.34         113 
 15.36         110 
 15.38         115 
 15.4          98 
 15.42         116 
 15.44         109 
 15.46         107 
 15.48         105 
 15.5          113 
 15.52         102 
 15.54         103 
 15.56         109 
 15.58         111 
 15.6          99 
 15.62         109 
 15.64         111 
 15.66         106 
 15.68         118 
 15.7          119 
 15.72         116 
 15.74         88 
 15.76         121 
 15.78         105 
 15.8          84 
 15.82         97 
 15.84         102 
 15.86         97 
 15.88         85 
 15.9          89 
 15.92         102 
 15.94         98 
 15.96         107 
 15.98         104 
 16            94 
 16.02         101 
 16.04         88 
 16.06         93 
 16.08         88 
 16.1          100 
 16.12         103 
 16.14         97 
 16.16         94 
 16.18         85 
 16.2          94 
 16.22         86 
 16.24         86 
 16.26         85 
 16.28         98 
 16.3          88 
 16.32         81 
 16.34         85 
 16.36         82 
 16.38         90 
 16.4          79 
 16.42         117 
 16.44         92 
 16.46         95 
 16.48         87 
 16.5          90 
 16.52         83 
 16.54         81 
 16.56         76 
 16.58         111 
 16.6          81 
 16.62         86 
 16.64         87 
 16.66         88 
 16.68         86 
 16.7          88 
 16.72         90 
 16.74         82 
 16.76         101 
 16.78         109 
 16.8          85 
 16.82         98 
 16.84         86 
 16.86         87 
 16.88         109 
 16.9          90 
 16.92         130 
 16.94         112 
 16.96         112 
 16.98         123 
 17            108 
 17.02         112 
 17.04         131 
 17.06         156 
 17.08         138 
 17.1          169 
 17.12         159 
 17.14         182 
 17.16         179 
 17.18         202 
 17.2          192 
 17.22         170 
 17.24         198 
 17.26         173 
 17.28         150 
 17.3          113 
 17.32         125 
 17.34         123 
 17.36         105 
 17.38         106 
 17.4          93 
 17.42         114 
 17.44         90 
 17.46         86 
 17.48         98 
 17.5          107 
 17.52         136 
 17.54         111 
 17.56         113 
 17.58         121 
 17.6          136 
 17.62         138 
 17.64         116 
 17.66         130 
 17.68         110 
 17.7          104 
 17.72         117 
 17.74         98 
 17.76         112 
 17.78         107 
 17.8          94 
 17.82         99 
 17.84         89 
 17.86         95 
 17.88         111 
 17.9          108 
 17.92         117 
 17.94         113 
 17.96         142 
 17.98         137 
 18            173 
 18.02         178 
 18.04         156 
 18.06         151 
 18.08         174 
 18.1          172 
 18.12         156 
 18.14         170 
 18.16         144 
 18.18         156 
 18.2          118 
 18.22         98 
 18.24         89 
 18.26         85 
 18.28         97 
 18.3          81 
 18.32         73 
 18.34         80 
 18.36         90 
 18.38         62 
 18.4          79 
 18.42         84 
 18.44         78 
 18.46         63 
 18.48         70 
 18.5          76 
 18.52         73 
 18.54         64 
 18.56         64 
 18.58         65 
 18.6          59 
 18.62         51 
 18.64         61 
 18.66         65 
 18.68         77 
 18.7          71 
 18.72         61 
 18.74         65 
 18.76         81 
 18.78         61 
 18.8          71 
 18.82         57 
 18.84         62 
 18.86         58 
 18.88         63 
 18.9          63 
 18.92         72 
 18.94         58 
 18.96         65 
 18.98         59 
 19            67 
 19.02         86 
 19.04         71 
 19.06         54 
 19.08         72 
 19.1          78 
 19.12         59 
 19.14         78 
 19.16         65 
 19.18         58 
 19.2          68 
 19.22         72 
 19.24         60 
 19.26         71 
 19.28         68 
 19.3          57 
 19.32         67 
 19.34         77 
 19.36         67 
 19.38         59 
 19.4          64 
 19.42         65 
 19.44         61 
 19.46         70 
 19.48         69 
 19.5          86 
 19.52         73 
 19.54         74 
 19.56         63 
 19.58         67 
 19.6          71 
 19.62         54 
 19.64         67 
 19.66         58 
 19.68         75 
 19.7          84 
 19.72         70 
 19.74         62 
 19.76         63 
 19.78         65 
 19.8          68 
 19.82         59 
 19.84         76 
 19.86         70 
 19.88         64 
 19.9          74 
 19.92         66 
 19.94         68 
 19.96         86 
 19.98         71 
 20            78 
 20.02         86 
 20.04         71 
 20.06         85 
 20.08         88 
 20.1          97 
 20.12         82 
 20.14         119 
 20.16         108 
 20.18         96 
 20.2          101 
 20.22         116 
 20.24         120 
 20.26         101 
 20.28         125 
 20.3          121 
 20.32         126 
 20.34         121 
 20.36         112 
 20.38         128 
 20.4          117 
 20.42         93 
 20.44         103 
 20.46         104 
 20.48         107 
 20.5          122 
 20.52         91 
 20.54         113 
 20.56         114 
 20.58         118 
 20.6          133 
 20.62         133 
 20.64         170 
 20.66         196 
 20.68         187 
 20.7          249 
 20.72         265 
 20.74         334 
 20.76         395 
 20.78         409 
 20.8          490 
 20.82         552 
 20.84         663 
 20.86         796 
 20.88         954 
 20.9          1047 
 20.92         1330 
 20.94         1615 
 20.96         1969 
 20.98         2353 
 21            2789 
 21.02         3245 
 21.04         3622 
 21.06         4021 
 21.08         4478 
 21.1          4738 
 21.12         4714 
 21.14         4437 
 21.16         4317 
 21.18         3954 
 21.2          3667 
 21.22         3549 
 21.24         3406 
 21.26         3282 
 21.28         3181 
 21.3          3135 
 21.32         3056 
 21.34         2742 
 21.36         2482 
 21.38         2074 
 21.4          1778 
 21.42         1358 
 21.44         1035 
 21.46         760 
 21.48         591 
 21.5          499 
 21.52         433 
 21.54         319 
 21.56         316 
 21.58         291 
 21.6          239 
 21.62         220 
 21.64         181 
 21.66         187 
 21.68         164 
 21.7          141 
 21.72         119 
 21.74         97 
 21.76         83 
 21.78         99 
 21.8          106 
 21.82         87 
 21.84         86 
 21.86         79 
 21.88         70 
 21.9          84 
 21.92         63 
 21.94         83 
 21.96         80 
 21.98         71 
 22            54 
 22.02         57 
 22.04         67 
 22.06         65 
 22.08         71 
 22.1          63 
 22.12         69 
 22.14         66 
 22.16         51 
 22.18         62 
 22.2          74 
 22.22         59 
 22.24         60 
 22.26         72 
 22.28         58 
 22.3          70 
 22.32         61 
 22.34         63 
 22.36         56 
 22.38         82 
 22.4          66 
 22.42         62 
 22.44         56 
 22.46         54 
 22.48         84 
 22.5          54 
 22.52         74 
 22.54         77 
 22.56         56 
 22.58         63 
 22.6          70 
 22.62         93 
 22.64         79 
 22.66         73 
 22.68         83 
 22.7          70 
 22.72         71 
 22.74         76 
 22.76         69 
 22.78         70 
 22.8          68 
 22.82         73 
 22.84         72 
 22.86         84 
 22.88         62 
 22.9          85 
 22.92         86 
 22.94         67 
 22.96         80 
 22.98         91 
 23            102 
 23.02         72 
 23.04         94 
 23.06         94 
 23.08         95 
 23.1          110 
 23.12         105 
 23.14         104 
 23.16         93 
 23.18         108 
 23.2          96 
 23.22         80 
 23.24         103 
 23.26         93 
 23.28         83 
 23.3          79 
 23.32         79 
 23.34         80 
 23.36         94 
 23.38         89 
 23.4          94 
 23.42         75 
 23.44         76 
 23.46         85 
 23.48         91 
 23.5          81 
 23.52         58 
 23.54         75 
 23.56         79 
 23.58         73 
 23.6          82 
 23.62         78 
 23.64         73 
 23.66         62 
 23.68         59 
 23.7          52 
 23.72         58 
 23.74         56 
 23.76         74 
 23.78         69 
 23.8          82 
 23.82         84 
 23.84         84 
 23.86         89 
 23.88         92 
 23.9          86 
 23.92         82 
 23.94         102 
 23.96         107 
 23.98         73 
 24            99 
 24.02         77 
 24.04         76 
 24.06         70 
 24.08         74 
 24.1          70 
 24.12         76 
 24.14         59 
 24.16         59 
 24.18         64 
 24.2          65 
 24.22         69 
 24.24         48 
 24.26         65 
 24.28         54 
 24.3          56 
 24.32         67 
 24.34         73 
 24.36         53 
 24.38         87 
 24.4          86 
 24.42         103 
 24.44         101 
 24.46         100 
 24.48         133 
 24.5          146 
 24.52         143 
 24.54         167 
 24.56         219 
 24.58         182 
 24.6          252 
 24.62         271 
 24.64         328 
 24.66         366 
 24.68         426 
 24.7          521 
 24.72         567 
 24.74         712 
 24.76         872 
 24.78         1103 
 24.8          1263 
 24.82         1579 
 24.84         1958 
 24.86         2492 
 24.88         2863 
 24.9          3599 
 24.92         4061 
 24.94         4571 
 24.96         5047 
 24.98         5035 
 25            4896 
 25.02         4545 
 25.04         3966 
 25.06         3329 
 25.08         2601 
 25.1          1851 
 25.12         1312 
 25.14         910 
 25.16         637 
 25.18         454 
 25.2          334 
 25.22         241 
 25.24         188 
 25.26         158 
 25.28         161 
 25.3          125 
 25.32         127 
 25.34         131 
 25.36         130 
 25.38         121 
 25.4          114 
 25.42         127 
 25.44         127 
 25.46         123 
 25.48         155 
 25.5          149 
 25.52         162 
 25.54         150 
 25.56         215 
 25.58         218 
 25.6          280 
 25.62         287 
 25.64         313 
 25.66         355 
 25.68         352 
 25.7          363 
 25.72         370 
 25.74         473 
 25.76         426 
 25.78         426 
 25.8          419 
 25.82         403 
 25.84         347 
 25.86         321 
 25.88         319 
 25.9          254 
 25.92         242 
 25.94         210 
 25.96         159 
 25.98         155 
 26            133 
 26.02         143 
 26.04         142 
 26.06         126 
 26.08         121 
 26.1          133 
 26.12         136 
 26.14         144 
 26.16         127 
 26.18         122 
 26.2          117 
 26.22         133 
 26.24         117 
 26.26         106 
 26.28         113 
 26.3          95 
 26.32         69 
 26.34         70 
 26.36         65 
 26.38         74 
 26.4          63 
 26.42         72 
 26.44         63 
 26.46         55 
 26.48         85 
 26.5          40 
 26.52         69 
 26.54         69 
 26.56         61 
 26.58         68 
 26.6          55 
 26.62         45 
 26.64         61 
 26.66         58 
 26.68         55 
 26.7          54 
 26.72         63 
 26.74         64 
 26.76         74 
 26.78         54 
 26.8          59 
 26.82         60 
 26.84         65 
 26.86         66 
 26.88         77 
 26.9          70 
 26.92         68 
 26.94         60 
 26.96         65 
 26.98         60 
 27            63 
 27.02         65 
 27.04         48 
 27.06         52 
 27.08         47 
 27.1          41 
 27.12         55 
 27.14         50 
 27.16         54 
 27.18         61 
 27.2          49 
 27.22         64 
 27.24         61 
 27.26         70 
 27.28         52 
 27.3          56 
 27.32         57 
 27.34         57 
 27.36         52 
 27.38         63 
 27.4          49 
 27.42         64 
 27.44         43 
 27.46         59 
 27.48         57 
 27.5          48 
 27.52         60 
 27.54         52 
 27.56         52 
 27.58         52 
 27.6          46 
 27.62         49 
 27.64         51 
 27.66         54 
 27.68         57 
 27.7          52 
 27.72         40 
 27.74         45 
 27.76         44 
 27.78         43 
 27.8          53 
 27.82         47 
 27.84         62 
 27.86         44 
 27.88         48 
 27.9          56 
 27.92         55 
 27.94         44 
 27.96         55 
 27.98         63 
 28            52 
 28.02         62 
 28.04         61 
 28.06         49 
 28.08         51 
 28.1          62 
 28.12         39 
 28.14         54 
 28.16         52 
 28.18         49 
 28.2          55 
 28.22         56 
 28.24         43 
 28.26         57 
 28.28         44 
 28.3          53 
 28.32         57 
 28.34         49 
 28.36         51 
 28.38         50 
 28.4          52 
 28.42         41 
 28.44         65 
 28.46         57 
 28.48         61 
 28.5          47 
 28.52         48 
 28.54         46 
 28.56         45 
 28.58         43 
 28.6          43 
 28.62         42 
 28.64         40 
 28.66         58 
 28.68         38 
 28.7          33 
 28.72         40 
 28.74         47 
 28.76         34 
 28.78         54 
 28.8          51 
 28.82         42 
 28.84         54 
 28.86         55 
 28.88         37 
 28.9          40 
 28.92         52 
 28.94         49 
 28.96         66 
 28.98         38 
 29            69 
 29.02         69 
 29.04         56 
 29.06         65 
 29.08         52 
 29.1          52 
 29.12         69 
 29.14         67 
 29.16         61 
 29.18         62 
 29.2          66 
 29.22         69 
 29.24         58 
 29.26         62 
 29.28         53 
 29.3          45 
 29.32         57 
 29.34         51 
 29.36         46 
 29.38         52 
 29.4          58 
 29.42         39 
 29.44         49 
 29.46         54 
 29.48         55 
 29.5          61 
 29.52         64 
 29.54         60 
 29.56         77 
 29.58         67 
 29.6          62 
 29.62         83 
 29.64         85 
 29.66         64 
 29.68         77 
 29.7          89 
 29.72         84 
 29.74         89 
 29.76         103 
 29.78         110 
 29.8          115 
 29.82         111 
 29.84         137 
 29.86         113 
 29.88         132 
 29.9          160 
 29.92         197 
 29.94         219 
 29.96         239 
 29.98         253 
 30            326 
 30.02         369 
 30.04         479 
 30.06         589 
 30.08         725 
 30.1          925 
 30.12         1134 
 30.14         1425 
 30.16         1806 
 30.18         2065 
 30.2          2421 
 30.22         2753 
 30.24         2946 
 30.26         2931 
 30.28         2779 
 30.3          2616 
 30.32         2234 
 30.34         1910 
 30.36         1540 
 30.38         1143 
 30.4          894 
 30.42         729 
 30.44         508 
 30.46         425 
 30.48         295 
 30.5          246 
 30.52         230 
 30.54         180 
 30.56         154 
 30.58         133 
 30.6          127 
 30.62         111 
 30.64         109 
 30.66         98 
 30.68         78 
 30.7          87 
 30.72         61 
 30.74         72 
 30.76         76 
 30.78         78 
 30.8          74 
 30.82         80 
 30.84         69 
 30.86         74 
 30.88         59 
 30.9          67 
 30.92         54 
 30.94         57 
 30.96         59 
 30.98         64 
 31            69 
 31.02         65 
 31.04         55 
 31.06         63 
 31.08         67 
 31.1          64 
 31.12         68 
 31.14         73 
 31.16         58 
 31.18         73 
 31.2          71 
 31.22         86 
 31.24         74 
 31.26         82 
 31.28         64 
 31.3          71 
 31.32         76 
 31.34         63 
 31.36         57 
 31.38         65 
 31.4          80 
 31.42         55 
 31.44         62 
 31.46         59 
 31.48         60 
 31.5          69 
 31.52         74 
 31.54         69 
 31.56         74 
 31.58         72 
 31.6          79 
 31.62         75 
 31.64         83 
 31.66         68 
 31.68         61 
 31.7          54 
 31.72         59 
 31.74         53 
 31.76         49 
 31.78         39 
 31.8          49 
 31.82         36 
 31.84         44 
 31.86         44 
 31.88         37 
 31.9          38 
 31.92         50 
 31.94         41 
 31.96         37 
 31.98         47 
 32            34 
 32.02         38 
 32.04         29 
 32.06         41 
 32.08         36 
 32.1          35 
 32.12         45 
 32.14         41 
 32.16         52 
 32.18         32 
 32.2          51 
 32.22         46 
 32.24         43 
 32.26         36 
 32.28         44 
 32.3          40 
 32.32         58 
 32.34         33 
 32.36         44 
 32.38         48 
 32.4          40 
 32.42         39 
 32.44         42 
 32.46         33 
 32.48         46 
 32.5          38 
 32.52         42 
 32.54         46 
 32.56         31 
 32.58         36 
 32.6          40 
 32.62         45 
 32.64         45 
 32.66         47 
 32.68         49 
 32.7          55 
 32.72         60 
 32.74         57 
 32.76         61 
 32.78         54 
 32.8          72 
 32.82         62 
 32.84         67 
 32.86         61 
 32.88         87 
 32.9          96 
 32.92         96 
 32.94         97 
 32.96         113 
 32.98         148 
 33            181 
 33.02         195 
 33.04         242 
 33.06         309 
 33.08         375 
 33.1          416 
 33.12         528 
 33.14         669 
 33.16         747 
 33.18         755 
 33.2          825 
 33.22         885 
 33.24         863 
 33.26         829 
 33.28         706 
 33.3          664 
 33.32         547 
 33.34         427 
 33.36         386 
 33.38         315 
 33.4          256 
 33.42         210 
 33.44         178 
 33.46         180 
 33.48         185 
 33.5          198 
 33.52         178 
 33.54         226 
 33.56         241 
 33.58         329 
 33.6          373 
 33.62         427 
 33.64         618 
 33.66         679 
 33.68         797 
 33.7          1020 
 33.72         1256 
 33.74         1467 
 33.76         1643 
 33.78         1804 
 33.8          1845 
 33.82         1837 
 33.84         1816 
 33.86         1614 
 33.88         1501 
 33.9          1263 
 33.92         1055 
 33.94         861 
 33.96         563 
 33.98         501 
 34            393 
 34.02         289 
 34.04         184 
 34.06         163 
 34.08         122 
 34.1          109 
 34.12         92 
 34.14         95 
 34.16         96 
 34.18         83 
 34.2          72 
 34.22         64 
 34.24         53 
 34.26         66 
 34.28         60 
 34.3          63 
 34.32         48 
 34.34         60 
 34.36         47 
 34.38         53 
 34.4          50 
 34.42         48 
 34.44         40 
 34.46         39 
 34.48         46 
 34.5          41 
 34.52         35 
 34.54         41 
 34.56         39 
 34.58         42 
 34.6          39 
 34.62         50 
 34.64         34 
 34.66         33 
 34.68         38 
 34.7          36 
 34.72         40 
 34.74         43 
 34.76         42 
 34.78         30 
 34.8          41 
 34.82         34 
 34.84         33 
 34.86         49 
 34.88         48 
 34.9          32 
 34.92         39 
 34.94         45 
 34.96         33 
 34.98         38 
 35            45 
 35.02         37 
 35.04         44 
 35.06         50 
 35.08         57 
 35.1          50 
 35.12         58 
 35.14         49 
 35.16         62 
 35.18         61 
 35.2          39 
 35.22         55 
 35.24         59 
 35.26         57 
 35.28         59 
 35.3          53 
 35.32         61 
 35.34         61 
 35.36         51 
 35.38         57 
 35.4          71 
 35.42         46 
 35.44         63 
 35.46         70 
 35.48         72 
 35.5          65 
 35.52         58 
 35.54         55 
 35.56         61 
 35.58         73 
 35.6          73 
 35.62         72 
 35.64         74 
 35.66         70 
 35.68         76 
 35.7          75 
 35.72         75 
 35.74         79 
 35.76         46 
 35.78         70 
 35.8          59 
 35.82         67 
 35.84         65 
 35.86         47 
 35.88         60 
 35.9          51 
 35.92         59 
 35.94         56 
 35.96         40 
 35.98         45 
 36            49 
 36.02         30 
 36.04         43 
 36.06         40 
 36.08         43 
 36.1          45 
 36.12         30 
 36.14         39 
 36.16         34 
 36.18         42 
 36.2          35 
 36.22         37 
 36.24         32 
 36.26         24 
 36.28         36 
 36.3          48 
 36.32         32 
 36.34         32 
 36.36         32 
 36.38         32 
 36.4          41 
 36.42         35 
 36.44         39 
 36.46         31 
 36.48         53 
 36.5          46 
 36.52         43 
 36.54         38 
 36.56         47 
 36.58         37 
 36.6          53 
 36.62         38 
 36.64         54 
 36.66         40 
 36.68         63 
 36.7          57 
 36.72         56 
 36.74         60 
 36.76         77 
 36.78         62 
 36.8          75 
 36.82         67 
 36.84         90 
 36.86         93 
 36.88         108 
 36.9          93 
 36.92         110 
 36.94         87 
 36.96         106 
 36.98         113 
 37            115 
 37.02         111 
 37.04         128 
 37.06         115 
 37.08         136 
 37.1          133 
 37.12         160 
 37.14         144 
 37.16         209 
 37.18         226 
 37.2          254 
 37.22         327 
 37.24         417 
 37.26         495 
 37.28         620 
 37.3          791 
 37.32         924 
 37.34         1086 
 37.36         1223 
 37.38         1331 
 37.4          1495 
 37.42         1487 
 37.44         1565 
 37.46         1618 
 37.48         1535 
 37.5          1459 
 37.52         1433 
 37.54         1241 
 37.56         1147 
 37.58         1003 
 37.6          899 
 37.62         674 
 37.64         552 
 37.66         429 
 37.68         386 
 37.7          327 
 37.72         265 
 37.74         211 
 37.76         173 
 37.78         143 
 37.8          151 
 37.82         136 
 37.84         104 
 37.86         111 
 37.88         104 
 37.9          119 
 37.92         98 
 37.94         104 
 37.96         105 
 37.98         91 
 38            88 
 38.02         71 
 38.04         76 
 38.06         59 
 38.08         60 
 38.1          72 
 38.12         55 
 38.14         46 
 38.16         54 
 38.18         43 
 38.2          39 
 38.22         54 
 38.24         42 
 38.26         47 
 38.28         48 
 38.3          42 
 38.32         45 
 38.34         39 
 38.36         42 
 38.38         39 
 38.4          33 
 38.42         35 
 38.44         42 
 38.46         33 
 38.48         26 
 38.5          44 
 38.52         36 
 38.54         32 
 38.56         37 
 38.58         26 
 38.6          39 
 38.62         25 
 38.64         27 
 38.66         40 
 38.68         32 
 38.7          34 
 38.72         33 
 38.74         54 
 38.76         28 
 38.78         44 
 38.8          47 
 38.82         50 
 38.84         50 
 38.86         53 
 38.88         32 
 38.9          48 
 38.92         48 
 38.94         42 
 38.96         52 
 38.98         63 
 39            60 
 39.02         44 
 39.04         64 
 39.06         68 
 39.08         62 
 39.1          71 
 39.12         66 
 39.14         51 
 39.16         75 
 39.18         71 
 39.2          57 
 39.22         55 
 39.24         54 
 39.26         72 
 39.28         66 
 39.3          58 
 39.32         57 
 39.34         59 
 39.36         61 
 39.38         54 
 39.4          62 
 39.42         46 
 39.44         43 
 39.46         57 
 39.48         59 
 39.5          42 
 39.52         54 
 39.54         42 
 39.56         62 
 39.58         39 
 39.6          49 
 39.62         59 
 39.64         56 
 39.66         57 
 39.68         55 
 39.7          69 
 39.72         52 
 39.74         62 
 39.76         71 
 39.78         90 
 39.8          81 
 39.82         64 
 39.84         94 
 39.86         53 
 39.88         82 
 39.9          73 
 39.92         75 
 39.94         55 
 39.96         59 
 39.98         65 
 40            42 
 40.02         64 
 40.04         55 
 40.06         58 
 40.08         45 
 40.1          52 
 40.12         50 
 40.14         49 
 40.16         43 
 40.18         33 
 40.2          38 
 40.22         36 
 40.24         39 
 40.26         40 
 40.28         33 
 40.3          32 
 40.32         28 
 40.34         33 
 40.36         27 
 40.38         45 
 40.4          33 
 40.42         34 
 40.44         35 
 40.46         35 
 40.48         42 
 40.5          46 
 40.52         37 
 40.54         26 
 40.56         29 
 40.58         39 
 40.6          40 
 40.62         29 
 40.64         32 
 40.66         35 
 40.68         42 
 40.7          36 
 40.72         34 
 40.74         41 
 40.76         36 
 40.78         50 
 40.8          34 
 40.82         50 
 40.84         37 
 40.86         47 
 40.88         33 
 40.9          28 
 40.92         29 
 40.94         29 
 40.96         38 
 40.98         33 
 41            41 
 41.02         31 
 41.04         33 
 41.06         33 
 41.08         30 
 41.1          30 
 41.12         39 
 41.14         37 
 41.16         45 
 41.18         39 
 41.2          50 
 41.22         43 
 41.24         45 
 41.26         61 
 41.28         48 
 41.3          50 
 41.32         51 
 41.34         51 
 41.36         58 
 41.38         55 
 41.4          69 
 41.42         54 
 41.44         51 
 41.46         50 
 41.48         72 
 41.5          68 
 41.52         67 
 41.54         62 
 41.56         68 
 41.58         82 
 41.6          72 
 41.62         80 
 41.64         74 
 41.66         62 
 41.68         67 
 41.7          60 
 41.72         44 
 41.74         53 
 41.76         58 
 41.78         41 
 41.8          29 
 41.82         37 
 41.84         38 
 41.86         42 
 41.88         36 
 41.9          43 
 41.92         41 
 41.94         39 
 41.96         34 
 41.98         41 
 42            36 
 42.02         37 
 42.04         35 
 42.06         30 
 42.08         25 
 42.1          37 
 42.12         43 
 42.14         33 
 42.16         40 
 42.18         36 
 42.2          34 
 42.22         36 
 42.24         34 
 42.26         45 
 42.28         21 
 42.3          28 
 42.32         29 
 42.34         30 
 42.36         32 
 42.38         25 
 42.4          42 
 42.42         35 
 42.44         44 
 42.46         44 
 42.48         37 
 42.5          42 
 42.52         28 
 42.54         37 
 42.56         33 
 42.58         45 
 42.6          47 
 42.62         31 
 42.64         44 
 42.66         48 
 42.68         32 
 42.7          42 
 42.72         24 
 42.74         47 
 42.76         49 
 42.78         42 
 42.8          39 
 42.82         40 
 42.84         35 
 42.86         45 
 42.88         57 
 42.9          53 
 42.92         64 
 42.94         63 
 42.96         62 
 42.98         87 
 43            83 
 43.02         124 
 43.04         103 
 43.06         163 
 43.08         138 
 43.1          176 
 43.12         180 
 43.14         202 
 43.16         196 
 43.18         206 
 43.2          205 
 43.22         189 
 43.24         197 
 43.26         197 
 43.28         180 
 43.3          136 
 43.32         136 
 43.34         112 
 43.36         120 
 43.38         85 
 43.4          80 
 43.42         66 
 43.44         64 
 43.46         59 
 43.48         41 
 43.5          50 
 43.52         53 
 43.54         61 
 43.56         42 
 43.58         60 
 43.6          44 
 43.62         50 
 43.64         69 
 43.66         57 
 43.68         52 
 43.7          57 
 43.72         36 
 43.74         35 
 43.76         53 
 43.78         39 
 43.8          47 
 43.82         29 
 43.84         36 
 43.86         30 
 43.88         45 
 43.9          31 
 43.92         31 
 43.94         34 
 43.96         36 
 43.98         46 
 44            30 
 44.02         33 
 44.04         26 
 44.06         39 
 44.08         35 
 44.1          24 
 44.12         33 
 44.14         35 
 44.16         47 
 44.18         32 
 44.2          35 
 44.22         25 
 44.24         20 
 44.26         31 
 44.28         33 
 44.3          43 
 44.32         33 
 44.34         38 
 44.36         38 
 44.38         30 
 44.4          39 
 44.42         41 
 44.44         40 
 44.46         32 
 44.48         40 
 44.5          44 
 44.52         45 
 44.54         38 
 44.56         41 
 44.58         42 
 44.6          29 
 44.62         38 
 44.64         35 
 44.66         42 
 44.68         39 
 44.7          36 
 44.72         41 
 44.74         51 
 44.76         42 
 44.78         43 
 44.8          47 
 44.82         45 
 44.84         45 
 44.86         38 
 44.88         55 
 44.9          48 
 44.92         69 
 44.94         72 
 44.96         71 
 44.98         97 
 45            127 
 45.02         125 
 45.04         157 
 45.06         154 
 45.08         190 
 45.1          220 
 45.12         229 
 45.14         253 
 45.16         301 
 45.18         301 
 45.2          320 
 45.22         299 
 45.24         306 
 45.26         272 
 45.28         264 
 45.3          293 
 45.32         246 
 45.34         240 
 45.36         216 
 45.38         231 
 45.4          215 
 45.42         221 
 45.44         212 
 45.46         198 
 45.48         198 
 45.5          157 
 45.52         182 
 45.54         172 
 45.56         161 
 45.58         205 
 45.6          223 
 45.62         211 
 45.64         227 
 45.66         249 
 45.68         255 
 45.7          258 
 45.72         258 
 45.74         235 
 45.76         250 
 45.78         253 
 45.8          190 
 45.82         207 
 45.84         173 
 45.86         176 
 45.88         132 
 45.9          143 
 45.92         136 
 45.94         126 
 45.96         96 
 45.98         97 
 46            105 
 46.02         77 
 46.04         89 
 46.06         89 
 46.08         94 
 46.1          99 
 46.12         96 
 46.14         99 
 46.16         120 
 46.18         110 
 46.2          118 
 46.22         123 
 46.24         146 
 46.26         107 
 46.28         134 
 46.3          155 
 46.32         154 
 46.34         139 
 46.36         159 
 46.38         166 
 46.4          172 
 46.42         143 
 46.44         160 
 46.46         163 
 46.48         124 
 46.5          133 
 46.52         119 
 46.54         86 
 46.56         99 
 46.58         87 
 46.6          69 
 46.62         63 
 46.64         61 
 46.66         48 
 46.68         42 
 46.7          54 
 46.72         42 
 46.74         43 
 46.76         43 
 46.78         37 
 46.8          39 
 46.82         33 
 46.84         37 
 46.86         33 
 46.88         35 
 46.9          41 
 46.92         43 
 46.94         35 
 46.96         42 
 46.98         32 
 47            26 
 47.02         43 
 47.04         40 
 47.06         30 
 47.08         35 
 47.1          28 
 47.12         30 
 47.14         31 
 47.16         33 
 47.18         26 
 47.2          36 
 47.22         34 
 47.24         37 
 47.26         39 
 47.28         34 
 47.3          27 
 47.32         36 
 47.34         40 
 47.36         41 
 47.38         41 
 47.4          44 
 47.42         31 
 47.44         44 
 47.46         33 
 47.48         42 
 47.5          38 
 47.52         40 
 47.54         31 
 47.56         31 
 47.58         35 
 47.6          35 
 47.62         39 
 47.64         45 
 47.66         48 
 47.68         39 
 47.7          36 
 47.72         34 
 47.74         36 
 47.76         51 
 47.78         34 
 47.8          37 
 47.82         35 
 47.84         32 
 47.86         41 
 47.88         37 
 47.9          36 
 47.92         35 
 47.94         45 
 47.96         45 
 47.98         49 
 48            40 
 48.02         36 
 48.04         47 
 48.06         47 
 48.08         43 
 48.1          52 
 48.12         49 
 48.14         67 
 48.16         51 
 48.18         53 
 48.2          68 
 48.22         75 
 48.24         69 
 48.26         82 
 48.28         74 
 48.3          76 
 48.32         87 
 48.34         102 
 48.36         105 
 48.38         90 
 48.4          112 
 48.42         134 
 48.44         143 
 48.46         170 
 48.48         197 
 48.5          214 
 48.52         270 
 48.54         306 
 48.56         371 
 48.58         479 
 48.6          566 
 48.62         679 
 48.64         724 
 48.66         799 
 48.68         850 
 48.7          927 
 48.72         902 
 48.74         944 
 48.76         925 
 48.78         876 
 48.8          810 
 48.82         757 
 48.84         717 
 48.86         629 
 48.88         613 
 48.9          627 
 48.92         575 
 48.94         548 
 48.96         601 
 48.98         541 
 49            551 
 49.02         552 
 49.04         547 
 49.06         481 
 49.08         515 
 49.1          487 
 49.12         385 
 49.14         352 
 49.16         326 
 49.18         251 
 49.2          233 
 49.22         220 
 49.24         153 
 49.26         131 
 49.28         124 
 49.3          105 
 49.32         91 
 49.34         75 
 49.36         71 
 49.38         68 
 49.4          62 
 49.42         45 
 49.44         42 
 49.46         56 
 49.48         41 
 49.5          54 
 49.52         37 
 49.54         39 
 49.56         39 
 49.58         41 
 49.6          44 
 49.62         29 
 49.64         36 
 49.66         41 
 49.68         48 
 49.7          33 
 49.72         50 
 49.74         39 
 49.76         35 
 49.78         33 
 49.8          44 
 49.82         35 
 49.84         38 
 49.86         43 
 49.88         31 
 49.9          35 
 49.92         46 
 49.94         47 
 49.96         35 
 49.98         44 
 50            44 
 50.02         35 
 50.04         28 
 50.06         39 
 50.08         27 
 50.1          35 
 50.12         21 
 50.14         28 
 50.16         27 
 50.18         31 
 50.2          32 
 50.22         28 
 50.24         37 
 50.26         31 
 50.28         30 
 50.3          24 
 50.32         28 
 50.34         20 
 50.36         42 
 50.38         39 
 50.4          29 
 50.42         33 
 50.44         34 
 50.46         37 
 50.48         31 
 50.5          47 
 50.52         30 
 50.54         37 
 50.56         58 
 50.58         46 
 50.6          39 
 50.62         42 
 50.64         43 
 50.66         49 
 50.68         67 
 50.7          76 
 50.72         83 
 50.74         78 
 50.76         104 
 50.78         116 
 50.8          137 
 50.82         154 
 50.84         179 
 50.86         193 
 50.88         192 
 50.9          199 
 50.92         211 
 50.94         229 
 50.96         218 
 50.98         244 
 51            242 
 51.02         244 
 51.04         271 
 51.06         263 
 51.08         259 
 51.1          250 
 51.12         217 
 51.14         214 
 51.16         210 
 51.18         195 
 51.2          233 
 51.22         207 
 51.24         205 
 51.26         222 
 51.28         258 
 51.3          241 
 51.32         289 
 51.34         327 
 51.36         363 
 51.38         401 
 51.4          535 
 51.42         612 
 51.44         667 
 51.46         652 
 51.48         720 
 51.5          758 
 51.52         679 
 51.54         672 
 51.56         656 
 51.58         647 
 51.6          640 
 51.62         629 
 51.64         592 
 51.66         495 
 51.68         464 
 51.7          416 
 51.72         342 
 51.74         304 
 51.76         306 
 51.78         286 
 51.8          199 
 51.82         190 
 51.84         175 
 51.86         155 
 51.88         137 
 51.9          119 
 51.92         89 
 51.94         76 
 51.96         60 
 51.98         76 
 52            53 
 52.02         40 
 52.04         47 
 52.06         43 
 52.08         43 
 52.1          43 
 52.12         43 
 52.14         27 
 52.16         35 
 52.18         47 
 52.2          38 
 52.22         42 
 52.24         25 
 52.26         34 
 52.28         34 
 52.3          36 
 52.32         30 
 52.34         33 
 52.36         34 
 52.38         38 
 52.4          35 
 52.42         38 
 52.44         44 
 52.46         32 
 52.48         38 
 52.5          35 
 52.52         38 
 52.54         42 
 52.56         45 
 52.58         41 
 52.6          40 
 52.62         32 
 52.64         42 
 52.66         42 
 52.68         40 
 52.7          47 
 52.72         48 
 52.74         25 
 52.76         43 
 52.78         43 
 52.8          40 
 52.82         39 
 52.84         36 
 52.86         45 
 52.88         44 
 52.9          54 
 52.92         46 
 52.94         58 
 52.96         44 
 52.98         58 
 53            60 
 53.02         44 
 53.04         64 
 53.06         59 
 53.08         82 
 53.1          81 
 53.12         83 
 53.14         96 
 53.16         74 
 53.18         85 
 53.2          93 
 53.22         80 
 53.24         111 
 53.26         92 
 53.28         113 
 53.3          103 
 53.32         106 
 53.34         93 
 53.36         88 
 53.38         97 
 53.4          94 
 53.42         85 
 53.44         87 
 53.46         81 
 53.48         82 
 53.5          68 
 53.52         76 
 53.54         82 
 53.56         63 
 53.58         62 
 53.6          49 
 53.62         61 
 53.64         51 
 53.66         54 
 53.68         58 
 53.7          46 
 53.72         50 
 53.74         47 
 53.76         43 
 53.78         50 
 53.8          53 
 53.82         40 
 53.84         45 
 53.86         34 
 53.88         32 
 53.9          42 
 53.92         51 
 53.94         43 
 53.96         38 
 53.98         52 
 54            57 
 54.02         37 
 54.04         42 
 54.06         48 
 54.08         30 
 54.1          42 
 54.12         52 
 54.14         30 
 54.16         29 
 54.18         33 
 54.2          44 
 54.22         39 
 54.24         26 
 54.26         35 
 54.28         36 
 54.3          30 
 54.32         29 
 54.34         31 
 54.36         44 
 54.38         27 
 54.4          27 
 54.42         25 
 54.44         31 
 54.46         41 
 54.48         34 
 54.5          32 
 54.52         28 
 54.54         37 
 54.56         26 
 54.58         33 
 54.6          34 
 54.62         35 
 54.64         27 
 54.66         31 
 54.68         29 
 54.7          36 
 54.72         38 
 54.74         23 
 54.76         28 
 54.78         38 
 54.8          30 
 54.82         34 
 54.84         37 
 54.86         31 
 54.88         40 
 54.9          35 
 54.92         35 
 54.94         42 
 54.96         41 
 54.98         30 
 55            31 
 55.02         31 
 55.04         31 
 55.06         46 
 55.08         32 
 55.1          39 
 55.12         37 
 55.14         38 
 55.16         38 
 55.18         41 
 55.2          38 
 55.22         39 
 55.24         40 
 55.26         33 
 55.28         48 
 55.3          46 
 55.32         45 
 55.34         45 
 55.36         47 
 55.38         68 
 55.4          50 
 55.42         71 
 55.44         53 
 55.46         63 
 55.48         75 
 55.5          74 
 55.52         81 
 55.54         106 
 55.56         118 
 55.58         116 
 55.6          155 
 55.62         188 
 55.64         210 
 55.66         227 
 55.68         258 
 55.7          279 
 55.72         234 
 55.74         285 
 55.76         326 
 55.78         326 
 55.8          338 
 55.82         316 
 55.84         375 
 55.86         367 
 55.88         418 
 55.9          441 
 55.92         469 
 55.94         464 
 55.96         519 
 55.98         540 
 56            590 
 56.02         561 
 56.04         588 
 56.06         576 
 56.08         528 
 56.1          523 
 56.12         489 
 56.14         449 
 56.16         420 
 56.18         381 
 56.2          327 
 56.22         305 
 56.24         261 
 56.26         234 
 56.28         207 
 56.3          178 
 56.32         140 
 56.34         129 
 56.36         96 
 56.38         87 
 56.4          93 
 56.42         77 
 56.44         75 
 56.46         72 
 56.48         51 
 56.5          59 
 56.52         59 
 56.54         55 
 56.56         54 
 56.58         52 
 56.6          50 
 56.62         49 
 56.64         44 
 56.66         42 
 56.68         46 
 56.7          39 
 56.72         36 
 56.74         43 
 56.76         41 
 56.78         41 
 56.8          52 
 56.82         40 
 56.84         28 
 56.86         39 
 56.88         32 
 56.9          32 
 56.92         29 
 56.94         31 
 56.96         38 
 56.98         34 
 57            39 
 57.02         35 
 57.04         26 
 57.06         32 
 57.08         29 
 57.1          26 
 57.12         38 
 57.14         34 
 57.16         25 
 57.18         24 
 57.2          17 
 57.22         33 
 57.24         35 
 57.26         34 
 57.28         23 
 57.3          24 
 57.32         29 
 57.34         29 
 57.36         31 
 57.38         29 
 57.4          23 
 57.42         30 
 57.44         27 
 57.46         33 
 57.48         37 
 57.5          28 
 57.52         33 
 57.54         33 
 57.56         39 
 57.58         33 
 57.6          43 
 57.62         39 
 57.64         26 
 57.66         45 
 57.68         42 
 57.7          28 
 57.72         49 
 57.74         33 
 57.76         46 
 57.78         39 
 57.8          43 
 57.82         47 
 57.84         45 
 57.86         47 
 57.88         67 
 57.9          86 
 57.92         77 
 57.94         86 
 57.96         100 
 57.98         101 
 58            113 
 58.02         122 
 58.04         120 
 58.06         140 
 58.08         116 
 58.1          146 
 58.12         140 
 58.14         170 
 58.16         157 
 58.18         143 
 58.2          138 
 58.22         160 
 58.24         168 
 58.26         149 
 58.28         154 
 58.3          151 
 58.32         148 
 58.34         166 
 58.36         183 
 58.38         189 
 58.4          196 
 58.42         230 
 58.44         260 
 58.46         305 
 58.48         316 
 58.5          413 
 58.52         395 
 58.54         434 
 58.56         489 
 58.58         497 
 58.6          572 
 58.62         583 
 58.64         577 
 58.66         597 
 58.68         577 
 58.7          596 
 58.72         619 
 58.74         701 
 58.76         731 
 58.78         831 
 58.8          782 
 58.82         878 
 58.84         892 
 58.86         927 
 58.88         956 
 58.9          953 
 58.92         981 
 58.94         966 
 58.96         957 
 58.98         937 
 59            908 
 59.02         826 
 59.04         795 
 59.06         786 
 59.08         664 
 59.1          577 
 59.12         556 
 59.14         492 
 59.16         391 
 59.18         348 
 59.2          299 
 59.22         279 
 59.24         242 
 59.26         185 
 59.28         172 
 59.3          163 
 59.32         120 
 59.34         102 
 59.36         90 
 59.38         82 
 59.4          67 
 59.42         70 
 59.44         70 
 59.46         56 
 59.48         63 
 59.5          65 
 59.52         54 
 59.54         54 
 59.56         46 
 59.58         41 
 59.6          53 
 59.62         47 
 59.64         49 
 59.66         35 
 59.68         35 
 59.7          40 
 59.72         35 
 59.74         37 
 59.76         36 
 59.78         38 
 59.8          37 
 59.82         42 
 59.84         38 
 59.86         35 
 59.88         39 
 59.9          41 
 59.92         36 
 59.94         49 
 59.96         36 
 59.98         56 
 60            42 
 60.02         65 
 60.04         56 
 60.06         47 
 60.08         57 
 60.1          50 
 60.12         59 
 60.14         72 
 60.16         56 
 60.18         85 
 60.2          81 
 60.22         86 
 60.24         81 
 60.26         95 
 60.28         77 
 60.3          96 
 60.32         108 
 60.34         92 
 60.36         107 
 60.38         100 
 60.4          125 
 60.42         134 
 60.44         137 
 60.46         177 
 60.48         200 
 60.5          212 
 60.52         194 
 60.54         218 
 60.56         243 
 60.58         220 
 60.6          238 
 60.62         257 
 60.64         224 
 60.66         225 
 60.68         191 
 60.7          199 
 60.72         198 
 60.74         190 
 60.76         174 
 60.78         185 
 60.8          139 
 60.82         118 
 60.84         137 
 60.86         113 
 60.88         103 
 60.9          76 
 60.92         70 
 60.94         55 
 60.96         52 
 60.98         47 
 61            53 
 61.02         56 
 61.04         45 
 61.06         55 
 61.08         42 
 61.1          50 
 61.12         37 
 61.14         48 
 61.16         38 
 61.18         38 
 61.2          29 
 61.22         37 
 61.24         35 
 61.26         38 
 61.28         28 
 61.3          39 
 61.32         31 
 61.34         43 
 61.36         41 
 61.38         45 
 61.4          31 
 61.42         51 
 61.44         36 
 61.46         36 
 61.48         38 
 61.5          34 
 61.52         42 
 61.54         44 
 61.56         42 
 61.58         29 
 61.6          38 
 61.62         38 
 61.64         45 
 61.66         41 
 61.68         27 
 61.7          47 
 61.72         38 
 61.74         42 
 61.76         30 
 61.78         37 
 61.8          36 
 61.82         44 
 61.84         25 
 61.86         33 
 61.88         37 
 61.9          30 
 61.92         26 
 61.94         34 
 61.96         25 
 61.98         32 
 62            34 
 62.02         47 
 62.04         38 
 62.06         37 
 62.08         38 
 62.1          32 
 62.12         42 
 62.14         26 
 62.16         30 
 62.18         31 
 62.2          33 
 62.22         22 
 62.24         39 
 62.26         33 
 62.28         29 
 62.3          40 
 62.32         44 
 62.34         43 
 62.36         35 
 62.38         39 
 62.4          37 
 62.42         56 
 62.44         45 
 62.46         31 
 62.48         47 
 62.5          33 
 62.52         41 
 62.54         39 
 62.56         44 
 62.58         38 
 62.6          37 
 62.62         27 
 62.64         43 
 62.66         41 
 62.68         32 
 62.7          44 
 62.72         45 
 62.74         31 
 62.76         40 
 62.78         49 
 62.8          42 
 62.82         47 
 62.84         43 
 62.86         45 
 62.88         52 
 62.9          54 
 62.92         68 
 62.94         87 
 62.96         65 
 62.98         96 
 63            106 
 63.02         112 
 63.04         148 
 63.06         159 
 63.08         179 
 63.1          191 
 63.12         209 
 63.14         215 
 63.16         230 
 63.18         214 
 63.2          208 
 63.22         196 
 63.24         196 
 63.26         169 
 63.28         206 
 63.3          155 
 63.32         143 
 63.34         129 
 63.36         117 
 63.38         133 
 63.4          94 
 63.42         108 
 63.44         86 
 63.46         84 
 63.48         86 
 63.5          66 
 63.52         50 
 63.54         63 
 63.56         53 
 63.58         41 
 63.6          51 
 63.62         42 
 63.64         40 
 63.66         55 
 63.68         34 
 63.7          31 
 63.72         32 
 63.74         36 
 63.76         35 
 63.78         41 
 63.8          36 
 63.82         35 
 63.84         39 
 63.86         38 
 63.88         34 
 63.9          48 
 63.92         42 
 63.94         42 
 63.96         41 
 63.98         41 
 64            45 
 64.02         34 
 64.04         38 
 64.06         49 
 64.08         43 
 64.1          42 
 64.12         36 
 64.14         39 
 64.16         37 
 64.18         54 
 64.2          35 
 64.22         44 
 64.24         44 
 64.26         46 
 64.28         48 
 64.3          56 
 64.32         62 
 64.34         61 
 64.36         57 
 64.38         74 
 64.4          61 
 64.42         87 
 64.44         81 
 64.46         89 
 64.48         73 
 64.5          100 
 64.52         110 
 64.54         118 
 64.56         108 
 64.58         109 
 64.6          111 
 64.62         120 
 64.64         143 
 64.66         118 
 64.68         129 
 64.7          141 
 64.72         143 
 64.74         136 
 64.76         163 
 64.78         177 
 64.8          167 
 64.82         151 
 64.84         165 
 64.86         215 
 64.88         207 
 64.9          178 
 64.92         195 
 64.94         204 
 64.96         238 
 64.98         228 
 65            236 
 65.02         233 
 65.04         270 
 65.06         341 
 65.08         344 
 65.1          346 
 65.12         364 
 65.14         430 
 65.16         385 
 65.18         403 
 65.2          407 
 65.22         398 
 65.24         433 
 65.26         382 
 65.28         364 
 65.3          335 
 65.32         355 
 65.34         380 
 65.36         429 
 65.38         365 
 65.4          394 
 65.42         391 
 65.44         362 
 65.46         378 
 65.48         402 
 65.5          369 
 65.52         371 
 65.54         367 
 65.56         366 
 65.58         327 
 65.6          336 
 65.62         282 
 65.64         277 
 65.66         278 
 65.68         258 
 65.7          251 
 65.72         238 
 65.74         177 
 65.76         190 
 65.78         167 
 65.8          154 
 65.82         126 
 65.84         121 
 65.86         106 
 65.88         97 
 65.9          97 
 65.92         92 
 65.94         71 
 65.96         59 
 65.98         77 
 66            70 
 66.02         72 
 66.04         65 
 66.06         70 
 66.08         54 
 66.1          60 
 66.12         59 
 66.14         54 
 66.16         55 
 66.18         49 
 66.2          52 
 66.22         40 
 66.24         47 
 66.26         52 
 66.28         43 
 66.3          48 
 66.32         56 
 66.34         53 
 66.36         37 
 66.38         48 
 66.4          40 
 66.42         49 
 66.44         42 
 66.46         45 
 66.48         44 
 66.5          49 
 66.52         46 
 66.54         41 
 66.56         39 
 66.58         52 
 66.6          45 
 66.62         41 
 66.64         44 
 66.66         44 
 66.68         47 
 66.7          47 
 66.72         60 
 66.74         40 
 66.76         25 
 66.78         57 
 66.8          43 
 66.82         47 
 66.84         43 
 66.86         36 
 66.88         47 
 66.9          33 
 66.92         36 
 66.94         43 
 66.96         43 
 66.98         41 
 67            45 
 67.02         48 
 67.04         46 
 67.06         44 
 67.08         39 
 67.1          44 
 67.12         31 
 67.14         43 
 67.16         49 
 67.18         47 
 67.2          44 
 67.22         51 
 67.24         58 
 67.26         40 
 67.28         56 
 67.3          56 
 67.32         58 
 67.34         58 
 67.36         57 
 67.38         56 
 67.4          72 
 67.42         89 
 67.44         100 
 67.46         116 
 67.48         126 
 67.5          129 
 67.52         131 
 67.54         139 
 67.56         172 
 67.58         165 
 67.6          178 
 67.62         182 
 67.64         200 
 67.66         207 
 67.68         250 
 67.7          251 
 67.72         267 
 67.74         298 
 67.76         279 
 67.78         306 
 67.8          293 
 67.82         304 
 67.84         296 
 67.86         289 
 67.88         258 
 67.9          268 
 67.92         286 
 67.94         263 
 67.96         256 
 67.98         214 
 68            213 
 68.02         205 
 68.04         190 
 68.06         179 
 68.08         154 
 68.1          162 
 68.12         139 
 68.14         110 
 68.16         118 
 68.18         106 
 68.2          98 
 68.22         78 
 68.24         79 
 68.26         66 
 68.28         70 
 68.3          77 
 68.32         56 
 68.34         61 
 68.36         52 
 68.38         59 
 68.4          66 
 68.42         58 
 68.44         53 
 68.46         58 
 68.48         71 
 68.5          57 
 68.52         64 
 68.54         72 
 68.56         78 
 68.58         92 
 68.6          96 
 68.62         95 
 68.64         110 
 68.66         95 
 68.68         101 
 68.7          136 
 68.72         110 
 68.74         144 
 68.76         161 
 68.78         185 
 68.8          176 
 68.82         171 
 68.84         219 
 68.86         213 
 68.88         223 
 68.9          212 
 68.92         252 
 68.94         198 
 68.96         234 
 68.98         215 
 69            218 
 69.02         207 
 69.04         212 
 69.06         222 
 69.08         209 
 69.1          191 
 69.12         203 
 69.14         206 
 69.16         192 
 69.18         205 
 69.2          163 
 69.22         174 
 69.24         177 
 69.26         177 
 69.28         147 
 69.3          166 
 69.32         192 
 69.34         174 
 69.36         194 
 69.38         185 
 69.4          205 
 69.42         216 
 69.44         202 
 69.46         186 
 69.48         234 
 69.5          240 
 69.52         223 
 69.54         235 
 69.56         216 
 69.58         188 
 69.6          181 
 69.62         202 
 69.64         202 
 69.66         148 
 69.68         168 
 69.7          132 
 69.72         127 
 69.74         130 
 69.76         103 
 69.78         90 
 69.8          92 
 69.82         82 
 69.84         81 
 69.86         76 
 69.88         80 
 69.9          67 
 69.92         58 
 69.94         69 
 69.96         52 
 69.98         46 
 70            50 
 70.02         53 
 70.04         56 
 70.06         50 
 70.08         48 
 70.1          42 
 70.12         50 
 70.14         50 
 70.16         45 
 70.18         47 
 70.2          51 
 70.22         33 
 70.24         41 
 70.26         40 
 70.28         37 
 70.3          31 
 70.32         37 
 70.34         42 
 70.36         37 
 70.38         42 
 70.4          44 
 70.42         40 
 70.44         41 
 70.46         28 
 70.48         32 
 70.5          31 
 70.52         25 
 70.54         41 
 70.56         25 
 70.58         37 
 70.6          29 
 70.62         36 
 70.64         28 
 70.66         33 
 70.68         38 
 70.7          27 
 70.72         32 
 70.74         26 
 70.76         32 
 70.78         33 
 70.8          35 
 70.82         33 
 70.84         41 
 70.86         32 
 70.88         27 
 70.9          34 
 70.92         32 
 70.94         35 
 70.96         44 
 70.98         39 
 71            33 
 71.02         40 
 71.04         38 
 71.06         37 
 71.08         37 
 71.1          47 
 71.12         70 
 71.14         69 
 71.16         63 
 71.18         55 
 71.2          98 
 71.22         95 
 71.24         93 
 71.26         101 
 71.28         112 
 71.3          118 
 71.32         129 
 71.34         113 
 71.36         128 
 71.38         135 
 71.4          127 
 71.42         143 
 71.44         126 
 71.46         127 
 71.48         118 
 71.5          116 
 71.52         122 
 71.54         107 
 71.56         99 
 71.58         97 
 71.6          89 
 71.62         107 
 71.64         79 
 71.66         87 
 71.68         70 
 71.7          70 
 71.72         85 
 71.74         57 
 71.76         76 
 71.78         71 
 71.8          93 
 71.82         81 
 71.84         93 
 71.86         94 
 71.88         108 
 71.9          110 
 71.92         125 
 71.94         141 
 71.96         123 
 71.98         167 
 72            138 
 72.02         155 
 72.04         157 
 72.06         136 
 72.08         150 
 72.1          162 
 72.12         153 
 72.14         156 
 72.16         170 
 72.18         143 
 72.2          155 
 72.22         180 
 72.24         149 
 72.26         136 
 72.28         152 
 72.3          150 
 72.32         146 
 72.34         147 
 72.36         149 
 72.38         159 
 72.4          144 
 72.42         125 
 72.44         139 
 72.46         157 
 72.48         151 
 72.5          154 
 72.52         138 
 72.54         131 
 72.56         127 
 72.58         152 
 72.6          130 
 72.62         132 
 72.64         147 
 72.66         131 
 72.68         125 
 72.7          127 
 72.72         127 
 72.74         118 
 72.76         87 
 72.78         108 
 72.8          106 
 72.82         100 
 72.84         115 
 72.86         121 
 72.88         127 
 72.9          132 
 72.92         121 
 72.94         125 
 72.96         137 
 72.98         146 
 73            155 
 73.02         147 
 73.04         156 
 73.06         155 
 73.08         202 
 73.1          176 
 73.12         208 
 73.14         190 
 73.16         213 
 73.18         242 
 73.2          237 
 73.22         209 
 73.24         274 
 73.26         264 
 73.28         233 
 73.3          237 
 73.32         212 
 73.34         226 
 73.36         237 
 73.38         234 
 73.4          246 
 73.42         203 
 73.44         214 
 73.46         237 
 73.48         212 
 73.5          191 
 73.52         228 
 73.54         197 
 73.56         263 
 73.58         210 
 73.6          229 
 73.62         258 
 73.64         221 
 73.66         213 
 73.68         215 
 73.7          220 
 73.72         211 
 73.74         224 
 73.76         195 
 73.78         198 
 73.8          183 
 73.82         195 
 73.84         162 
 73.86         146 
 73.88         139 
 73.9          138 
 73.92         131 
 73.93999      124 
 73.96         118 
 73.98         108 
 74            86 
 74.02         98 
 74.04         74 
 74.06         102 
 74.08         82 
 74.1          79 
 74.12         68 
 74.14         65 
 74.16         61 
 74.18         50 
 74.2          56 
 74.22         43 
 74.24         47 
 74.26         46 
 74.28         46 
 74.3          49 
 74.32         34 
 74.34         46 
 74.36         44 
 74.38         50 
 74.4          42 
 74.42         33 
 74.43999      35 
 74.46         36 
 74.48         34 
 74.5          29 
 74.52         29 
 74.54         33 
 74.56         39 
 74.58         37 
 74.6          35 
 74.62         28 
 74.64         31 
 74.66         37 
 74.68         32 
 74.7          27 
 74.72         31 
 74.74         37 
 74.76         38 
 74.78         36 
 74.8          31 
 74.82         41 
 74.84         29 
 74.86         39 
 74.88         43 
 74.9          34 
 74.92         39 
 74.93999      44 
 74.96         33 
 74.98         36 
 75            22 
