F900-250KproM-Probe-Probe11  Original Data
 3151 
 12            271 
 12.02         221 
 12.04         256 
 12.06         228 
 12.08         252 
 12.1          246 
 12.12         237 
 12.14         265 
 12.16         243 
 12.18         231 
 12.2          281 
 12.22         233 
 12.24         279 
 12.26         263 
 12.28         250 
 12.3          280 
 12.32         280 
 12.34         267 
 12.36         236 
 12.38         256 
 12.4          276 
 12.42         240 
 12.44         246 
 12.46         217 
 12.48         255 
 12.5          252 
 12.52         231 
 12.54         233 
 12.56         234 
 12.58         241 
 12.6          247 
 12.62         223 
 12.64         228 
 12.66         252 
 12.68         253 
 12.7          233 
 12.72         233 
 12.74         263 
 12.76         239 
 12.78         237 
 12.8          238 
 12.82         278 
 12.84         242 
 12.86         230 
 12.88         211 
 12.9          216 
 12.92         229 
 12.94         214 
 12.96         230 
 12.98         223 
 13            261 
 13.02         214 
 13.04         211 
 13.06         246 
 13.08         257 
 13.1          231 
 13.12         229 
 13.14         223 
 13.16         227 
 13.18         245 
 13.2          223 
 13.22         238 
 13.24         221 
 13.26         208 
 13.28         216 
 13.3          211 
 13.32         243 
 13.34         223 
 13.36         201 
 13.38         213 
 13.4          210 
 13.42         223 
 13.44         180 
 13.46         212 
 13.48         203 
 13.5          206 
 13.52         219 
 13.54         233 
 13.56         227 
 13.58         216 
 13.6          222 
 13.62         216 
 13.64         205 
 13.66         201 
 13.68         198 
 13.7          200 
 13.72         217 
 13.74         201 
 13.76         203 
 13.78         203 
 13.8          214 
 13.82         231 
 13.84         208 
 13.86         199 
 13.88         198 
 13.9          213 
 13.92         193 
 13.94         208 
 13.96         205 
 13.98         173 
 14            211 
 14.02         194 
 14.04         205 
 14.06         195 
 14.08         255 
 14.1          204 
 14.12         233 
 14.14         217 
 14.16         236 
 14.18         206 
 14.2          201 
 14.22         229 
 14.24         222 
 14.26         185 
 14.28         204 
 14.3          237 
 14.32         235 
 14.34         253 
 14.36         245 
 14.38         223 
 14.4          268 
 14.42         255 
 14.44         272 
 14.46         309 
 14.48         303 
 14.5          335 
 14.52         351 
 14.54         379 
 14.56         432 
 14.58         445 
 14.6          483 
 14.62         492 
 14.64         554 
 14.66         655 
 14.68         744 
 14.7          832 
 14.72         924 
 14.74         977 
 14.76         1180 
 14.78         1369 
 14.8          1588 
 14.82         1826 
 14.84         2065 
 14.86         2521 
 14.88         2857 
 14.9          3309 
 14.92         3644 
 14.94         4242 
 14.96         4003 
 14.98         3941 
 15            3293 
 15.02         2722 
 15.04         2089 
 15.06         1404 
 15.08         925 
 15.1          616 
 15.12         409 
 15.14         339 
 15.16         289 
 15.18         256 
 15.2          253 
 15.22         239 
 15.24         235 
 15.26         211 
 15.28         208 
 15.3          243 
 15.32         208 
 15.34         211 
 15.36         173 
 15.38         178 
 15.4          216 
 15.42         191 
 15.44         183 
 15.46         197 
 15.48         211 
 15.5          163 
 15.52         170 
 15.54         208 
 15.56         196 
 15.58         169 
 15.6          210 
 15.62         194 
 15.64         184 
 15.66         170 
 15.68         194 
 15.7          192 
 15.72         156 
 15.74         185 
 15.76         172 
 15.78         174 
 15.8          205 
 15.82         183 
 15.84         171 
 15.86         185 
 15.88         180 
 15.9          167 
 15.92         195 
 15.94         211 
 15.96         165 
 15.98         202 
 16            203 
 16.02         176 
 16.04         172 
 16.06         161 
 16.08         194 
 16.1          158 
 16.12         176 
 16.14         188 
 16.16         169 
 16.18         170 
 16.2          179 
 16.22         185 
 16.24         186 
 16.26         154 
 16.28         157 
 16.3          188 
 16.32         174 
 16.34         170 
 16.36         185 
 16.38         166 
 16.4          180 
 16.42         156 
 16.44         163 
 16.46         182 
 16.48         164 
 16.5          191 
 16.52         177 
 16.54         162 
 16.56         193 
 16.58         169 
 16.6          171 
 16.62         186 
 16.64         147 
 16.66         183 
 16.68         173 
 16.7          168 
 16.72         155 
 16.74         168 
 16.76         181 
 16.78         173 
 16.8          169 
 16.82         154 
 16.84         193 
 16.86         151 
 16.88         168 
 16.9          166 
 16.92         147 
 16.94         140 
 16.96         160 
 16.98         190 
 17            167 
 17.02         148 
 17.04         173 
 17.06         156 
 17.08         175 
 17.1          160 
 17.12         185 
 17.14         186 
 17.16         149 
 17.18         161 
 17.2          174 
 17.22         159 
 17.24         186 
 17.26         154 
 17.28         146 
 17.3          171 
 17.32         156 
 17.34         142 
 17.36         169 
 17.38         172 
 17.4          134 
 17.42         154 
 17.44         164 
 17.46         163 
 17.48         167 
 17.5          151 
 17.52         167 
 17.54         172 
 17.56         164 
 17.58         133 
 17.6          158 
 17.62         157 
 17.64         144 
 17.66         158 
 17.68         172 
 17.7          159 
 17.72         170 
 17.74         141 
 17.76         148 
 17.78         161 
 17.8          160 
 17.82         156 
 17.84         137 
 17.86         140 
 17.88         143 
 17.9          146 
 17.92         155 
 17.94         165 
 17.96         147 
 17.98         143 
 18            148 
 18.02         139 
 18.04         147 
 18.06         150 
 18.08         152 
 18.1          138 
 18.12         137 
 18.14         160 
 18.16         154 
 18.18         157 
 18.2          147 
 18.22         163 
 18.24         167 
 18.26         140 
 18.28         164 
 18.3          158 
 18.32         128 
 18.34         140 
 18.36         143 
 18.38         144 
 18.4          147 
 18.42         134 
 18.44         157 
 18.46         153 
 18.48         159 
 18.5          162 
 18.52         144 
 18.54         165 
 18.56         113 
 18.58         173 
 18.6          154 
 18.62         163 
 18.64         142 
 18.66         149 
 18.68         145 
 18.7          142 
 18.72         149 
 18.74         163 
 18.76         156 
 18.78         149 
 18.8          160 
 18.82         152 
 18.84         139 
 18.86         154 
 18.88         141 
 18.9          152 
 18.92         142 
 18.94         145 
 18.96         160 
 18.98         141 
 19            138 
 19.02         153 
 19.04         166 
 19.06         144 
 19.08         131 
 19.1          135 
 19.12         165 
 19.14         143 
 19.16         117 
 19.18         148 
 19.2          159 
 19.22         157 
 19.24         125 
 19.26         122 
 19.28         143 
 19.3          144 
 19.32         148 
 19.34         147 
 19.36         141 
 19.38         151 
 19.4          159 
 19.42         152 
 19.44         164 
 19.46         127 
 19.48         155 
 19.5          143 
 19.52         132 
 19.54         145 
 19.56         139 
 19.58         125 
 19.6          141 
 19.62         161 
 19.64         157 
 19.66         150 
 19.68         141 
 19.7          156 
 19.72         143 
 19.74         121 
 19.76         141 
 19.78         131 
 19.8          155 
 19.82         152 
 19.84         159 
 19.86         130 
 19.88         144 
 19.9          154 
 19.92         141 
 19.94         155 
 19.96         141 
 19.98         152 
 20            154 
 20.02         150 
 20.04         145 
 20.06         185 
 20.08         174 
 20.1          161 
 20.12         166 
 20.14         176 
 20.16         184 
 20.18         183 
 20.2          198 
 20.22         190 
 20.24         227 
 20.26         203 
 20.28         245 
 20.3          233 
 20.32         241 
 20.34         277 
 20.36         278 
 20.38         253 
 20.4          248 
 20.42         264 
 20.44         271 
 20.46         273 
 20.48         229 
 20.5          216 
 20.52         265 
 20.54         293 
 20.56         249 
 20.58         283 
 20.6          313 
 20.62         349 
 20.64         292 
 20.66         371 
 20.68         415 
 20.7          428 
 20.72         480 
 20.74         522 
 20.76         628 
 20.78         732 
 20.8          814 
 20.82         934 
 20.84         1082 
 20.86         1345 
 20.88         1495 
 20.9          1772 
 20.92         2184 
 20.94         2558 
 20.96         3073 
 20.98         3809 
 21            4696 
 21.02         5893 
 21.04         6629 
 21.06         8567 
 21.08         10024 
 21.1          11516 
 21.12         12866 
 21.14         13434 
 21.16         13480 
 21.18         13022 
 21.2          11943 
 21.22         10805 
 21.24         9370 
 21.26         8580 
 21.28         7850 
 21.3          8021 
 21.32         8614 
 21.34         8849 
 21.36         9299 
 21.38         10020 
 21.4          9318 
 21.42         8752 
 21.44         7423 
 21.46         6233 
 21.48         4709 
 21.5          3578 
 21.52         2485 
 21.54         1697 
 21.56         1316 
 21.58         982 
 21.6          911 
 21.62         747 
 21.64         769 
 21.66         744 
 21.68         713 
 21.7          703 
 21.72         595 
 21.74         546 
 21.76         435 
 21.78         392 
 21.8          318 
 21.82         301 
 21.84         264 
 21.86         219 
 21.88         227 
 21.9          207 
 21.92         231 
 21.94         211 
 21.96         162 
 21.98         194 
 22            185 
 22.02         178 
 22.04         154 
 22.06         153 
 22.08         174 
 22.1          159 
 22.12         173 
 22.14         159 
 22.16         159 
 22.18         150 
 22.2          134 
 22.22         170 
 22.24         139 
 22.26         152 
 22.28         152 
 22.3          147 
 22.32         145 
 22.34         161 
 22.36         120 
 22.38         145 
 22.4          138 
 22.42         140 
 22.44         139 
 22.46         145 
 22.48         140 
 22.5          123 
 22.52         145 
 22.54         130 
 22.56         122 
 22.58         153 
 22.6          137 
 22.62         152 
 22.64         136 
 22.66         138 
 22.68         136 
 22.7          135 
 22.72         138 
 22.74         145 
 22.76         127 
 22.78         148 
 22.8          122 
 22.82         148 
 22.84         120 
 22.86         138 
 22.88         142 
 22.9          125 
 22.92         132 
 22.94         127 
 22.96         133 
 22.98         135 
 23            126 
 23.02         143 
 23.04         141 
 23.06         133 
 23.08         121 
 23.1          151 
 23.12         142 
 23.14         132 
 23.16         126 
 23.18         126 
 23.2          145 
 23.22         116 
 23.24         138 
 23.26         155 
 23.28         119 
 23.3          133 
 23.32         121 
 23.34         144 
 23.36         134 
 23.38         144 
 23.4          132 
 23.42         122 
 23.44         131 
 23.46         124 
 23.48         143 
 23.5          124 
 23.52         130 
 23.54         147 
 23.56         132 
 23.58         140 
 23.6          153 
 23.62         126 
 23.64         132 
 23.66         120 
 23.68         126 
 23.7          125 
 23.72         127 
 23.74         130 
 23.76         129 
 23.78         137 
 23.8          121 
 23.82         116 
 23.84         118 
 23.86         130 
 23.88         135 
 23.9          126 
 23.92         133 
 23.94         137 
 23.96         142 
 23.98         146 
 24            130 
 24.02         105 
 24.04         128 
 24.06         145 
 24.08         154 
 24.1          138 
 24.12         139 
 24.14         153 
 24.16         130 
 24.18         142 
 24.2          123 
 24.22         139 
 24.24         150 
 24.26         169 
 24.28         148 
 24.3          183 
 24.32         146 
 24.34         154 
 24.36         160 
 24.38         181 
 24.4          184 
 24.42         185 
 24.44         193 
 24.46         197 
 24.48         218 
 24.5          264 
 24.52         264 
 24.54         268 
 24.56         336 
 24.58         364 
 24.6          414 
 24.62         464 
 24.64         516 
 24.66         638 
 24.68         659 
 24.7          774 
 24.72         912 
 24.74         1072 
 24.76         1265 
 24.78         1482 
 24.8          1790 
 24.82         2162 
 24.84         2681 
 24.86         3244 
 24.88         4195 
 24.9          5049 
 24.92         6644 
 24.94         7954 
 24.96         10183 
 24.98         11943 
 25            14027 
 25.02         15664 
 25.04         16421 
 25.06         16118 
 25.08         14763 
 25.1          12496 
 25.12         10290 
 25.14         7458 
 25.16         5529 
 25.18         3480 
 25.2          2497 
 25.22         1525 
 25.24         1096 
 25.26         823 
 25.28         707 
 25.3          579 
 25.32         501 
 25.34         441 
 25.36         381 
 25.38         367 
 25.4          332 
 25.42         316 
 25.44         313 
 25.46         296 
 25.48         278 
 25.5          289 
 25.52         304 
 25.54         355 
 25.56         380 
 25.58         358 
 25.6          377 
 25.62         420 
 25.64         451 
 25.66         507 
 25.68         602 
 25.7          714 
 25.72         733 
 25.74         850 
 25.76         890 
 25.78         990 
 25.8          933 
 25.82         986 
 25.84         980 
 25.86         880 
 25.88         823 
 25.9          711 
 25.92         626 
 25.94         542 
 25.96         457 
 25.98         436 
 26            384 
 26.02         330 
 26.04         289 
 26.06         282 
 26.08         340 
 26.1          303 
 26.12         371 
 26.14         403 
 26.16         446 
 26.18         497 
 26.2          473 
 26.22         594 
 26.24         572 
 26.26         649 
 26.28         594 
 26.3          587 
 26.32         547 
 26.34         454 
 26.36         422 
 26.38         358 
 26.4          266 
 26.42         238 
 26.44         221 
 26.46         180 
 26.48         194 
 26.5          165 
 26.52         121 
 26.54         137 
 26.56         114 
 26.58         112 
 26.6          130 
 26.62         138 
 26.64         121 
 26.66         125 
 26.68         118 
 26.7          124 
 26.72         123 
 26.74         122 
 26.76         120 
 26.78         114 
 26.8          128 
 26.82         133 
 26.84         112 
 26.86         126 
 26.88         123 
 26.9          122 
 26.92         110 
 26.94         122 
 26.96         112 
 26.98         109 
 27            109 
 27.02         122 
 27.04         131 
 27.06         102 
 27.08         106 
 27.1          81 
 27.12         131 
 27.14         113 
 27.16         122 
 27.18         106 
 27.2          106 
 27.22         106 
 27.24         103 
 27.26         107 
 27.28         120 
 27.3          114 
 27.32         97 
 27.34         104 
 27.36         127 
 27.38         122 
 27.4          111 
 27.42         123 
 27.44         113 
 27.46         102 
 27.48         116 
 27.5          128 
 27.52         102 
 27.54         111 
 27.56         117 
 27.58         119 
 27.6          100 
 27.62         125 
 27.64         139 
 27.66         108 
 27.68         98 
 27.7          113 
 27.72         132 
 27.74         110 
 27.76         119 
 27.78         117 
 27.8          136 
 27.82         121 
 27.84         123 
 27.86         123 
 27.88         108 
 27.9          98 
 27.92         106 
 27.94         108 
 27.96         107 
 27.98         136 
 28            125 
 28.02         127 
 28.04         126 
 28.06         154 
 28.08         136 
 28.1          140 
 28.12         119 
 28.14         126 
 28.16         153 
 28.18         137 
 28.2          108 
 28.22         116 
 28.24         123 
 28.26         102 
 28.28         99 
 28.3          93 
 28.32         90 
 28.34         110 
 28.36         93 
 28.38         90 
 28.4          103 
 28.42         116 
 28.44         127 
 28.46         115 
 28.48         105 
 28.5          101 
 28.52         103 
 28.54         91 
 28.56         111 
 28.58         108 
 28.6          125 
 28.62         97 
 28.64         105 
 28.66         107 
 28.68         92 
 28.7          105 
 28.72         88 
 28.74         115 
 28.76         110 
 28.78         120 
 28.8          101 
 28.82         121 
 28.84         102 
 28.86         100 
 28.88         101 
 28.9          119 
 28.92         119 
 28.94         110 
 28.96         105 
 28.98         110 
 29            103 
 29.02         94 
 29.04         117 
 29.06         113 
 29.08         96 
 29.1          95 
 29.12         102 
 29.14         99 
 29.16         104 
 29.18         92 
 29.2          115 
 29.22         124 
 29.24         120 
 29.26         94 
 29.28         89 
 29.3          118 
 29.32         101 
 29.34         99 
 29.36         114 
 29.38         111 
 29.4          100 
 29.42         113 
 29.44         96 
 29.46         103 
 29.48         106 
 29.5          105 
 29.52         111 
 29.54         125 
 29.56         99 
 29.58         99 
 29.6          106 
 29.62         107 
 29.64         130 
 29.66         149 
 29.68         122 
 29.7          172 
 29.72         135 
 29.74         133 
 29.76         139 
 29.78         162 
 29.8          195 
 29.82         184 
 29.84         205 
 29.86         244 
 29.88         256 
 29.9          257 
 29.92         328 
 29.94         372 
 29.96         369 
 29.98         406 
 30            451 
 30.02         573 
 30.04         633 
 30.06         772 
 30.08         854 
 30.1          1077 
 30.12         1449 
 30.14         1842 
 30.16         2355 
 30.18         2991 
 30.2          3794 
 30.22         4682 
 30.24         5794 
 30.26         6813 
 30.28         7898 
 30.3          8562 
 30.32         8792 
 30.34         8439 
 30.36         7794 
 30.38         6922 
 30.4          5472 
 30.42         4280 
 30.44         3266 
 30.46         2269 
 30.48         1609 
 30.5          1030 
 30.52         804 
 30.54         569 
 30.56         384 
 30.58         342 
 30.6          293 
 30.62         272 
 30.64         230 
 30.66         227 
 30.68         202 
 30.7          180 
 30.72         171 
 30.74         193 
 30.76         167 
 30.78         160 
 30.8          130 
 30.82         162 
 30.84         157 
 30.86         152 
 30.88         141 
 30.9          149 
 30.92         154 
 30.94         133 
 30.96         141 
 30.98         153 
 31            144 
 31.02         156 
 31.04         145 
 31.06         133 
 31.08         118 
 31.1          120 
 31.12         115 
 31.14         135 
 31.16         109 
 31.18         117 
 31.2          118 
 31.22         126 
 31.24         107 
 31.26         112 
 31.28         93 
 31.3          108 
 31.32         97 
 31.34         100 
 31.36         108 
 31.38         104 
 31.4          96 
 31.42         94 
 31.44         101 
 31.46         99 
 31.48         103 
 31.5          88 
 31.52         94 
 31.54         81 
 31.56         102 
 31.58         104 
 31.6          101 
 31.62         92 
 31.64         119 
 31.66         110 
 31.68         103 
 31.7          101 
 31.72         84 
 31.74         98 
 31.76         95 
 31.78         96 
 31.8          107 
 31.82         108 
 31.84         103 
 31.86         110 
 31.88         112 
 31.9          86 
 31.92         116 
 31.94         106 
 31.96         109 
 31.98         98 
 32            93 
 32.02         98 
 32.04         93 
 32.06         80 
 32.08         121 
 32.1          95 
 32.12         93 
 32.14         94 
 32.16         109 
 32.18         118 
 32.2          85 
 32.22         89 
 32.24         94 
 32.26         90 
 32.28         89 
 32.3          94 
 32.32         83 
 32.34         105 
 32.36         93 
 32.38         92 
 32.4          89 
 32.42         107 
 32.44         91 
 32.46         92 
 32.48         109 
 32.5          77 
 32.52         80 
 32.54         87 
 32.56         94 
 32.58         119 
 32.6          114 
 32.62         92 
 32.64         110 
 32.66         109 
 32.68         107 
 32.7          119 
 32.72         105 
 32.74         118 
 32.76         121 
 32.78         124 
 32.8          133 
 32.82         138 
 32.84         162 
 32.86         142 
 32.88         160 
 32.9          166 
 32.92         176 
 32.94         202 
 32.96         239 
 32.98         243 
 33            281 
 33.02         321 
 33.04         344 
 33.06         424 
 33.08         518 
 33.1          578 
 33.12         723 
 33.14         825 
 33.16         1132 
 33.18         1330 
 33.2          1534 
 33.22         1878 
 33.24         2298 
 33.26         2537 
 33.28         2681 
 33.3          2692 
 33.32         2790 
 33.34         2586 
 33.36         2407 
 33.38         2199 
 33.4          1919 
 33.42         1554 
 33.44         1295 
 33.46         997 
 33.48         781 
 33.5          654 
 33.52         651 
 33.54         554 
 33.56         511 
 33.58         603 
 33.6          670 
 33.62         810 
 33.64         951 
 33.66         1213 
 33.68         1482 
 33.7          1802 
 33.72         2375 
 33.74         2746 
 33.76         3633 
 33.78         4097 
 33.8          4748 
 33.82         5105 
 33.84         5470 
 33.86         5619 
 33.88         5343 
 33.9          5098 
 33.92         4255 
 33.94         3743 
 33.96         3098 
 33.98         2429 
 34            1867 
 34.02         1422 
 34.04         1104 
 34.06         715 
 34.08         565 
 34.1          414 
 34.12         361 
 34.14         262 
 34.16         241 
 34.18         214 
 34.2          208 
 34.22         190 
 34.24         184 
 34.26         155 
 34.28         166 
 34.3          166 
 34.32         148 
 34.34         136 
 34.36         112 
 34.38         111 
 34.4          111 
 34.42         103 
 34.44         110 
 34.46         105 
 34.48         114 
 34.5          112 
 34.52         88 
 34.54         102 
 34.56         119 
 34.58         115 
 34.6          89 
 34.62         105 
 34.64         104 
 34.66         87 
 34.68         88 
 34.7          99 
 34.72         86 
 34.74         91 
 34.76         109 
 34.78         109 
 34.8          101 
 34.82         92 
 34.84         103 
 34.86         101 
 34.88         94 
 34.9          86 
 34.92         92 
 34.94         92 
 34.96         102 
 34.98         97 
 35            97 
 35.02         100 
 35.04         100 
 35.06         137 
 35.08         100 
 35.1          116 
 35.12         108 
 35.14         127 
 35.16         99 
 35.18         114 
 35.2          110 
 35.22         111 
 35.24         110 
 35.26         120 
 35.28         121 
 35.3          123 
 35.32         131 
 35.34         142 
 35.36         122 
 35.38         131 
 35.4          118 
 35.42         108 
 35.44         117 
 35.46         110 
 35.48         113 
 35.5          116 
 35.52         130 
 35.54         120 
 35.56         115 
 35.58         146 
 35.6          153 
 35.62         169 
 35.64         148 
 35.66         153 
 35.68         138 
 35.7          165 
 35.72         177 
 35.74         156 
 35.76         159 
 35.78         156 
 35.8          149 
 35.82         150 
 35.84         150 
 35.86         134 
 35.88         115 
 35.9          154 
 35.92         126 
 35.94         114 
 35.96         130 
 35.98         109 
 36            103 
 36.02         113 
 36.04         104 
 36.06         116 
 36.08         95 
 36.1          100 
 36.12         88 
 36.14         113 
 36.16         107 
 36.18         97 
 36.2          121 
 36.22         114 
 36.24         106 
 36.26         102 
 36.28         89 
 36.3          73 
 36.32         94 
 36.34         92 
 36.36         101 
 36.38         73 
 36.4          88 
 36.42         85 
 36.44         87 
 36.46         83 
 36.48         88 
 36.5          70 
 36.52         86 
 36.54         80 
 36.56         89 
 36.58         101 
 36.6          81 
 36.62         96 
 36.64         97 
 36.66         83 
 36.68         98 
 36.7          97 
 36.72         107 
 36.74         86 
 36.76         103 
 36.78         108 
 36.8          111 
 36.82         110 
 36.84         141 
 36.86         115 
 36.88         141 
 36.9          156 
 36.92         155 
 36.94         184 
 36.96         179 
 36.98         203 
 37            211 
 37.02         221 
 37.04         234 
 37.06         268 
 37.08         273 
 37.1          274 
 37.12         301 
 37.14         312 
 37.16         320 
 37.18         354 
 37.2          388 
 37.22         508 
 37.24         519 
 37.26         682 
 37.28         812 
 37.3          1007 
 37.32         1281 
 37.34         1589 
 37.36         2014 
 37.38         2429 
 37.4          2995 
 37.42         3281 
 37.44         3838 
 37.46         4031 
 37.48         4341 
 37.5          4602 
 37.52         4688 
 37.54         4621 
 37.56         4455 
 37.58         4304 
 37.6          4256 
 37.62         3987 
 37.64         3728 
 37.66         3363 
 37.68         2881 
 37.7          2406 
 37.72         2082 
 37.74         1707 
 37.76         1390 
 37.78         1023 
 37.8          831 
 37.82         679 
 37.84         540 
 37.86         418 
 37.88         358 
 37.9          320 
 37.92         317 
 37.94         299 
 37.96         263 
 37.98         220 
 38            203 
 38.02         202 
 38.04         198 
 38.06         210 
 38.08         196 
 38.1          166 
 38.12         136 
 38.14         132 
 38.16         120 
 38.18         124 
 38.2          96 
 38.22         99 
 38.24         116 
 38.26         120 
 38.28         103 
 38.3          101 
 38.32         103 
 38.34         86 
 38.36         88 
 38.38         92 
 38.4          84 
 38.42         92 
 38.44         109 
 38.46         77 
 38.48         104 
 38.5          94 
 38.52         112 
 38.54         93 
 38.56         86 
 38.58         82 
 38.6          95 
 38.62         91 
 38.64         85 
 38.66         109 
 38.68         85 
 38.7          90 
 38.72         101 
 38.74         92 
 38.76         123 
 38.78         93 
 38.8          102 
 38.82         105 
 38.84         113 
 38.86         113 
 38.88         114 
 38.9          115 
 38.92         121 
 38.94         135 
 38.96         131 
 38.98         95 
 39            134 
 39.02         97 
 39.04         92 
 39.06         102 
 39.08         115 
 39.1          114 
 39.12         118 
 39.14         122 
 39.16         117 
 39.18         136 
 39.2          137 
 39.22         130 
 39.24         133 
 39.26         139 
 39.28         115 
 39.3          125 
 39.32         129 
 39.34         134 
 39.36         116 
 39.38         143 
 39.4          116 
 39.42         118 
 39.44         114 
 39.46         96 
 39.48         117 
 39.5          108 
 39.52         110 
 39.54         127 
 39.56         103 
 39.58         111 
 39.6          128 
 39.62         99 
 39.64         106 
 39.66         126 
 39.68         111 
 39.7          151 
 39.72         143 
 39.74         197 
 39.76         143 
 39.78         154 
 39.8          177 
 39.82         214 
 39.84         200 
 39.86         238 
 39.88         223 
 39.9          214 
 39.92         224 
 39.94         230 
 39.96         236 
 39.98         221 
 40            205 
 40.02         198 
 40.04         156 
 40.06         175 
 40.08         146 
 40.1          130 
 40.12         100 
 40.14         118 
 40.16         107 
 40.18         99 
 40.2          111 
 40.22         87 
 40.24         80 
 40.26         80 
 40.28         85 
 40.3          97 
 40.32         74 
 40.34         71 
 40.36         74 
 40.38         72 
 40.4          83 
 40.42         68 
 40.44         71 
 40.46         87 
 40.48         66 
 40.5          71 
 40.52         74 
 40.54         88 
 40.56         78 
 40.58         68 
 40.6          87 
 40.62         86 
 40.64         72 
 40.66         76 
 40.68         72 
 40.7          82 
 40.72         97 
 40.74         87 
 40.76         83 
 40.78         72 
 40.8          74 
 40.82         80 
 40.84         79 
 40.86         91 
 40.88         93 
 40.9          84 
 40.92         85 
 40.94         91 
 40.96         98 
 40.98         109 
 41            68 
 41.02         84 
 41.04         74 
 41.06         67 
 41.08         75 
 41.1          70 
 41.12         75 
 41.14         84 
 41.16         72 
 41.18         83 
 41.2          74 
 41.22         85 
 41.24         96 
 41.26         94 
 41.28         82 
 41.3          95 
 41.32         110 
 41.34         103 
 41.36         96 
 41.38         123 
 41.4          131 
 41.42         116 
 41.44         128 
 41.46         128 
 41.48         142 
 41.5          152 
 41.52         135 
 41.54         153 
 41.56         154 
 41.58         147 
 41.6          135 
 41.62         147 
 41.64         140 
 41.66         120 
 41.68         120 
 41.7          116 
 41.72         114 
 41.74         97 
 41.76         95 
 41.78         93 
 41.8          93 
 41.82         107 
 41.84         95 
 41.86         78 
 41.88         94 
 41.9          78 
 41.92         90 
 41.94         85 
 41.96         102 
 41.98         96 
 42            88 
 42.02         83 
 42.04         92 
 42.06         86 
 42.08         88 
 42.1          87 
 42.12         106 
 42.14         96 
 42.16         80 
 42.18         114 
 42.2          94 
 42.22         100 
 42.24         91 
 42.26         89 
 42.28         79 
 42.3          89 
 42.32         75 
 42.34         64 
 42.36         89 
 42.38         65 
 42.4          88 
 42.42         75 
 42.44         81 
 42.46         89 
 42.48         73 
 42.5          61 
 42.52         73 
 42.54         77 
 42.56         73 
 42.58         73 
 42.6          77 
 42.62         88 
 42.64         85 
 42.66         73 
 42.68         95 
 42.7          77 
 42.72         84 
 42.74         89 
 42.76         86 
 42.78         95 
 42.8          97 
 42.82         108 
 42.84         94 
 42.86         109 
 42.88         117 
 42.9          114 
 42.92         97 
 42.94         123 
 42.96         171 
 42.98         172 
 43            184 
 43.02         205 
 43.04         241 
 43.06         307 
 43.08         346 
 43.1          380 
 43.12         432 
 43.14         461 
 43.16         549 
 43.18         579 
 43.2          607 
 43.22         505 
 43.24         597 
 43.26         564 
 43.28         544 
 43.3          457 
 43.32         400 
 43.34         380 
 43.36         323 
 43.38         285 
 43.4          223 
 43.42         206 
 43.44         169 
 43.46         161 
 43.48         151 
 43.5          153 
 43.52         122 
 43.54         144 
 43.56         102 
 43.58         109 
 43.6          114 
 43.62         122 
 43.64         127 
 43.66         116 
 43.68         106 
 43.7          118 
 43.72         124 
 43.74         113 
 43.76         134 
 43.78         128 
 43.8          116 
 43.82         84 
 43.84         110 
 43.86         104 
 43.88         98 
 43.9          80 
 43.92         86 
 43.94         103 
 43.96         93 
 43.98         78 
 44            98 
 44.02         76 
 44.04         66 
 44.06         82 
 44.08         72 
 44.1          80 
 44.12         103 
 44.14         88 
 44.16         64 
 44.18         59 
 44.2          81 
 44.22         76 
 44.24         70 
 44.26         86 
 44.28         84 
 44.3          74 
 44.32         77 
 44.34         80 
 44.36         72 
 44.38         89 
 44.4          80 
 44.42         91 
 44.44         91 
 44.46         95 
 44.48         103 
 44.5          91 
 44.52         80 
 44.54         83 
 44.56         94 
 44.58         92 
 44.6          88 
 44.62         86 
 44.64         82 
 44.66         96 
 44.68         109 
 44.7          100 
 44.72         105 
 44.74         100 
 44.76         95 
 44.78         92 
 44.8          121 
 44.82         129 
 44.84         108 
 44.86         138 
 44.88         151 
 44.9          144 
 44.92         138 
 44.94         190 
 44.96         186 
 44.98         231 
 45            291 
 45.02         288 
 45.04         359 
 45.06         439 
 45.08         527 
 45.1          545 
 45.12         640 
 45.14         679 
 45.16         715 
 45.18         708 
 45.2          720 
 45.22         788 
 45.24         808 
 45.26         743 
 45.28         712 
 45.3          717 
 45.32         658 
 45.34         603 
 45.36         589 
 45.38         607 
 45.4          555 
 45.42         537 
 45.44         538 
 45.46         495 
 45.48         485 
 45.5          474 
 45.52         479 
 45.54         475 
 45.56         473 
 45.58         436 
 45.6          459 
 45.62         477 
 45.64         493 
 45.66         550 
 45.68         573 
 45.7          624 
 45.72         693 
 45.74         694 
 45.76         681 
 45.78         729 
 45.8          697 
 45.82         616 
 45.84         637 
 45.86         522 
 45.88         527 
 45.9          448 
 45.92         416 
 45.94         364 
 45.96         320 
 45.98         288 
 46            224 
 46.02         206 
 46.04         186 
 46.06         194 
 46.08         209 
 46.1          202 
 46.12         174 
 46.14         200 
 46.16         200 
 46.18         235 
 46.2          260 
 46.22         269 
 46.24         315 
 46.26         277 
 46.28         306 
 46.3          330 
 46.32         330 
 46.34         350 
 46.36         337 
 46.38         362 
 46.4          389 
 46.42         419 
 46.44         389 
 46.46         383 
 46.48         442 
 46.5          421 
 46.52         499 
 46.54         440 
 46.56         403 
 46.58         384 
 46.6          359 
 46.62         314 
 46.64         255 
 46.66         269 
 46.68         226 
 46.7          200 
 46.72         167 
 46.74         151 
 46.76         136 
 46.78         99 
 46.8          112 
 46.82         82 
 46.84         86 
 46.86         78 
 46.88         89 
 46.9          102 
 46.92         99 
 46.94         67 
 46.96         79 
 46.98         76 
 47            86 
 47.02         71 
 47.04         72 
 47.06         78 
 47.08         77 
 47.1          72 
 47.12         95 
 47.14         84 
 47.16         66 
 47.18         98 
 47.2          82 
 47.22         81 
 47.24         82 
 47.26         83 
 47.28         75 
 47.3          72 
 47.32         69 
 47.34         77 
 47.36         77 
 47.38         104 
 47.4          64 
 47.42         97 
 47.44         81 
 47.46         84 
 47.48         97 
 47.5          78 
 47.52         79 
 47.54         71 
 47.56         87 
 47.58         78 
 47.6          89 
 47.62         75 
 47.64         79 
 47.66         94 
 47.68         92 
 47.7          69 
 47.72         67 
 47.74         67 
 47.76         91 
 47.78         83 
 47.8          83 
 47.82         91 
 47.84         84 
 47.86         92 
 47.88         89 
 47.9          79 
 47.92         89 
 47.94         96 
 47.96         110 
 47.98         100 
 48            85 
 48.02         107 
 48.04         102 
 48.06         116 
 48.08         97 
 48.1          122 
 48.12         116 
 48.14         101 
 48.16         125 
 48.18         127 
 48.2          109 
 48.22         139 
 48.24         134 
 48.26         166 
 48.28         153 
 48.3          171 
 48.32         173 
 48.34         176 
 48.36         220 
 48.38         211 
 48.4          255 
 48.42         249 
 48.44         279 
 48.46         323 
 48.48         370 
 48.5          435 
 48.52         469 
 48.54         589 
 48.56         726 
 48.58         818 
 48.6          1098 
 48.62         1287 
 48.64         1602 
 48.66         1888 
 48.68         2148 
 48.7          2331 
 48.72         2472 
 48.74         2750 
 48.76         2681 
 48.78         2595 
 48.8          2419 
 48.82         2394 
 48.84         2209 
 48.86         2051 
 48.88         1883 
 48.9          1681 
 48.92         1540 
 48.94         1432 
 48.96         1374 
 48.98         1315 
 49            1388 
 49.02         1402 
 49.04         1481 
 49.06         1541 
 49.08         1507 
 49.1          1599 
 49.12         1519 
 49.14         1502 
 49.16         1518 
 49.18         1349 
 49.2          1277 
 49.22         1114 
 49.24         957 
 49.26         856 
 49.28         718 
 49.3          622 
 49.32         551 
 49.34         462 
 49.36         359 
 49.38         300 
 49.4          252 
 49.42         230 
 49.44         214 
 49.46         192 
 49.48         171 
 49.5          171 
 49.52         157 
 49.54         133 
 49.56         152 
 49.58         143 
 49.6          132 
 49.62         144 
 49.64         119 
 49.66         115 
 49.68         131 
 49.7          103 
 49.72         121 
 49.74         105 
 49.76         103 
 49.78         90 
 49.8          83 
 49.82         87 
 49.84         87 
 49.86         105 
 49.88         107 
 49.9          78 
 49.92         96 
 49.94         84 
 49.96         90 
 49.98         65 
 50            78 
 50.02         68 
 50.04         78 
 50.06         99 
 50.08         84 
 50.1          74 
 50.12         90 
 50.14         81 
 50.16         56 
 50.18         70 
 50.2          79 
 50.22         84 
 50.24         82 
 50.26         63 
 50.28         70 
 50.3          94 
 50.32         74 
 50.34         83 
 50.36         92 
 50.38         79 
 50.4          79 
 50.42         85 
 50.44         88 
 50.46         83 
 50.48         91 
 50.5          95 
 50.52         79 
 50.54         89 
 50.56         84 
 50.58         85 
 50.6          112 
 50.62         105 
 50.64         109 
 50.66         115 
 50.68         104 
 50.7          128 
 50.72         152 
 50.74         160 
 50.76         167 
 50.78         205 
 50.8          178 
 50.82         259 
 50.84         295 
 50.86         335 
 50.88         379 
 50.9          434 
 50.92         500 
 50.94         563 
 50.96         612 
 50.98         680 
 51            715 
 51.02         745 
 51.04         775 
 51.06         802 
 51.08         792 
 51.1          747 
 51.12         668 
 51.14         704 
 51.16         694 
 51.18         586 
 51.2          611 
 51.22         513 
 51.24         501 
 51.26         493 
 51.28         477 
 51.3          543 
 51.32         504 
 51.34         584 
 51.36         614 
 51.38         727 
 51.4          814 
 51.42         956 
 51.44         1195 
 51.46         1351 
 51.48         1645 
 51.5          1813 
 51.52         1950 
 51.54         1973 
 51.56         2007 
 51.58         2061 
 51.6          1987 
 51.62         1902 
 51.64         1856 
 51.66         1828 
 51.68         1616 
 51.7          1604 
 51.72         1430 
 51.74         1408 
 51.76         1206 
 51.78         1204 
 51.8          1126 
 51.82         990 
 51.84         893 
 51.86         748 
 51.88         767 
 51.9          672 
 51.92         596 
 51.94         527 
 51.96         427 
 51.98         371 
 52            345 
 52.02         246 
 52.04         241 
 52.06         193 
 52.08         186 
 52.1          148 
 52.12         139 
 52.14         128 
 52.16         140 
 52.18         95 
 52.2          100 
 52.22         117 
 52.24         120 
 52.26         102 
 52.28         95 
 52.3          114 
 52.32         102 
 52.34         95 
 52.36         91 
 52.38         91 
 52.4          82 
 52.42         108 
 52.44         76 
 52.46         76 
 52.48         89 
 52.5          103 
 52.52         83 
 52.54         76 
 52.56         91 
 52.58         92 
 52.6          78 
 52.62         90 
 52.64         93 
 52.66         82 
 52.68         82 
 52.7          83 
 52.72         96 
 52.74         73 
 52.76         96 
 52.78         90 
 52.8          96 
 52.82         102 
 52.84         88 
 52.86         87 
 52.88         110 
 52.9          102 
 52.92         111 
 52.94         126 
 52.96         116 
 52.98         136 
 53            159 
 53.02         152 
 53.04         157 
 53.06         157 
 53.08         148 
 53.1          186 
 53.12         198 
 53.14         215 
 53.16         237 
 53.18         213 
 53.2          276 
 53.22         249 
 53.24         266 
 53.26         280 
 53.28         272 
 53.3          276 
 53.32         237 
 53.34         278 
 53.36         241 
 53.38         221 
 53.4          228 
 53.42         200 
 53.44         232 
 53.46         202 
 53.48         186 
 53.5          172 
 53.52         144 
 53.54         153 
 53.56         135 
 53.58         138 
 53.6          125 
 53.62         104 
 53.64         134 
 53.66         102 
 53.68         120 
 53.7          98 
 53.72         108 
 53.74         88 
 53.76         72 
 53.78         104 
 53.8          76 
 53.82         74 
 53.84         75 
 53.86         75 
 53.88         86 
 53.9          85 
 53.92         71 
 53.94         65 
 53.96         91 
 53.98         67 
 54            72 
 54.02         81 
 54.04         89 
 54.06         74 
 54.08         93 
 54.1          98 
 54.12         119 
 54.14         99 
 54.16         115 
 54.18         88 
 54.2          102 
 54.22         102 
 54.24         90 
 54.26         107 
 54.28         98 
 54.3          91 
 54.32         85 
 54.34         79 
 54.36         91 
 54.38         76 
 54.4          81 
 54.42         88 
 54.44         88 
 54.46         68 
 54.48         78 
 54.5          96 
 54.52         85 
 54.54         96 
 54.56         69 
 54.58         75 
 54.6          75 
 54.62         82 
 54.64         63 
 54.66         78 
 54.68         64 
 54.7          83 
 54.72         70 
 54.74         74 
 54.76         67 
 54.78         69 
 54.8          79 
 54.82         73 
 54.84         89 
 54.86         84 
 54.88         87 
 54.9          87 
 54.92         72 
 54.94         77 
 54.96         59 
 54.98         77 
 55            63 
 55.02         75 
 55.04         58 
 55.06         82 
 55.08         69 
 55.1          78 
 55.12         82 
 55.14         70 
 55.16         92 
 55.18         89 
 55.2          71 
 55.22         80 
 55.24         90 
 55.26         80 
 55.28         73 
 55.3          99 
 55.32         85 
 55.34         92 
 55.36         104 
 55.38         83 
 55.4          142 
 55.42         137 
 55.44         115 
 55.46         136 
 55.48         130 
 55.5          162 
 55.52         163 
 55.54         158 
 55.56         186 
 55.58         234 
 55.6          287 
 55.62         308 
 55.64         331 
 55.66         426 
 55.68         487 
 55.7          592 
 55.72         645 
 55.74         789 
 55.76         744 
 55.78         843 
 55.8          924 
 55.82         971 
 55.84         1024 
 55.86         1041 
 55.88         1221 
 55.9          1311 
 55.92         1388 
 55.94         1463 
 55.96         1539 
 55.98         1585 
 56            1669 
 56.02         1647 
 56.04         1682 
 56.06         1577 
 56.08         1638 
 56.1          1556 
 56.12         1473 
 56.14         1359 
 56.16         1291 
 56.18         1158 
 56.2          1143 
 56.22         971 
 56.24         855 
 56.26         744 
 56.28         685 
 56.3          534 
 56.32         505 
 56.34         398 
 56.36         338 
 56.38         284 
 56.4          259 
 56.42         214 
 56.44         183 
 56.46         189 
 56.48         144 
 56.5          127 
 56.52         126 
 56.54         129 
 56.56         121 
 56.58         131 
 56.6          142 
 56.62         89 
 56.64         98 
 56.66         103 
 56.68         107 
 56.7          82 
 56.72         94 
 56.74         97 
 56.76         89 
 56.78         93 
 56.8          80 
 56.82         90 
 56.84         103 
 56.86         83 
 56.88         67 
 56.9          91 
 56.92         82 
 56.94         88 
 56.96         92 
 56.98         80 
 57            80 
 57.02         81 
 57.04         85 
 57.06         70 
 57.08         71 
 57.1          99 
 57.12         73 
 57.14         80 
 57.16         87 
 57.18         73 
 57.2          75 
 57.22         64 
 57.24         76 
 57.26         74 
 57.28         81 
 57.3          72 
 57.32         70 
 57.34         82 
 57.36         78 
 57.38         76 
 57.4          79 
 57.42         74 
 57.44         79 
 57.46         78 
 57.48         77 
 57.5          81 
 57.52         84 
 57.54         71 
 57.56         77 
 57.58         93 
 57.6          89 
 57.62         93 
 57.64         89 
 57.66         88 
 57.68         102 
 57.7          107 
 57.72         94 
 57.74         100 
 57.76         102 
 57.78         105 
 57.8          129 
 57.82         131 
 57.84         133 
 57.86         136 
 57.88         190 
 57.9          185 
 57.92         216 
 57.94         193 
 57.96         246 
 57.98         257 
 58            305 
 58.02         258 
 58.04         369 
 58.06         325 
 58.08         358 
 58.1          366 
 58.12         341 
 58.14         384 
 58.16         386 
 58.18         361 
 58.2          376 
 58.22         399 
 58.24         357 
 58.26         351 
 58.28         325 
 58.3          361 
 58.32         305 
 58.34         359 
 58.36         358 
 58.38         376 
 58.4          389 
 58.42         429 
 58.44         457 
 58.46         528 
 58.48         595 
 58.5          673 
 58.52         822 
 58.54         899 
 58.56         1016 
 58.58         1183 
 58.6          1246 
 58.62         1319 
 58.64         1448 
 58.66         1490 
 58.68         1573 
 58.7          1536 
 58.72         1515 
 58.74         1469 
 58.76         1599 
 58.78         1615 
 58.8          1649 
 58.82         1815 
 58.84         1868 
 58.86         1951 
 58.88         2052 
 58.9          2241 
 58.92         2340 
 58.94         2348 
 58.96         2642 
 58.98         2703 
 59            2784 
 59.02         2819 
 59.04         2884 
 59.06         2840 
 59.08         2859 
 59.1          2723 
 59.12         2666 
 59.14         2433 
 59.16         2297 
 59.18         2119 
 59.2          1913 
 59.22         1699 
 59.24         1615 
 59.26         1404 
 59.28         1200 
 59.3          1065 
 59.32         924 
 59.34         769 
 59.36         672 
 59.38         546 
 59.4          484 
 59.42         439 
 59.44         322 
 59.46         291 
 59.48         242 
 59.5          219 
 59.52         199 
 59.54         197 
 59.56         180 
 59.58         139 
 59.6          158 
 59.62         117 
 59.64         138 
 59.66         106 
 59.68         146 
 59.7          123 
 59.72         114 
 59.74         79 
 59.76         107 
 59.78         115 
 59.8          105 
 59.82         115 
 59.84         91 
 59.86         94 
 59.88         116 
 59.9          109 
 59.92         120 
 59.94         103 
 59.96         118 
 59.98         123 
 60            125 
 60.02         111 
 60.04         96 
 60.06         123 
 60.08         122 
 60.1          122 
 60.12         163 
 60.14         164 
 60.16         185 
 60.18         191 
 60.2          154 
 60.22         209 
 60.24         196 
 60.26         214 
 60.28         224 
 60.3          248 
 60.32         215 
 60.34         242 
 60.36         217 
 60.38         225 
 60.4          270 
 60.42         287 
 60.44         293 
 60.46         270 
 60.48         295 
 60.5          350 
 60.52         356 
 60.54         388 
 60.56         462 
 60.58         494 
 60.6          538 
 60.62         527 
 60.64         546 
 60.66         594 
 60.68         618 
 60.7          673 
 60.72         655 
 60.74         645 
 60.76         607 
 60.78         595 
 60.8          631 
 60.82         599 
 60.84         525 
 60.86         478 
 60.88         470 
 60.9          427 
 60.92         389 
 60.94         347 
 60.96         288 
 60.98         271 
 61            233 
 61.02         201 
 61.04         191 
 61.06         163 
 61.08         132 
 61.1          116 
 61.12         139 
 61.14         123 
 61.16         122 
 61.18         111 
 61.2          83 
 61.22         95 
 61.24         84 
 61.26         101 
 61.28         89 
 61.3          99 
 61.32         88 
 61.34         92 
 61.36         101 
 61.38         97 
 61.4          84 
 61.42         86 
 61.44         86 
 61.46         88 
 61.48         75 
 61.5          75 
 61.52         79 
 61.54         80 
 61.56         84 
 61.58         96 
 61.6          88 
 61.62         85 
 61.64         90 
 61.66         88 
 61.68         104 
 61.7          80 
 61.72         87 
 61.74         78 
 61.76         78 
 61.78         72 
 61.8          85 
 61.82         86 
 61.84         80 
 61.86         68 
 61.88         75 
 61.9          64 
 61.92         62 
 61.94         58 
 61.96         63 
 61.98         79 
 62            65 
 62.02         68 
 62.04         68 
 62.06         72 
 62.08         77 
 62.1          75 
 62.12         79 
 62.14         57 
 62.16         64 
 62.18         64 
 62.2          59 
 62.22         64 
 62.24         74 
 62.26         64 
 62.28         56 
 62.3          77 
 62.32         69 
 62.34         75 
 62.36         68 
 62.38         74 
 62.4          56 
 62.42         60 
 62.44         80 
 62.46         75 
 62.48         67 
 62.5          74 
 62.52         73 
 62.54         69 
 62.56         66 
 62.58         80 
 62.6          75 
 62.62         72 
 62.64         86 
 62.66         74 
 62.68         70 
 62.7          75 
 62.72         81 
 62.74         84 
 62.76         86 
 62.78         99 
 62.8          97 
 62.82         87 
 62.84         111 
 62.86         108 
 62.88         101 
 62.9          93 
 62.92         120 
 62.94         127 
 62.96         122 
 62.98         178 
 63            215 
 63.02         223 
 63.04         234 
 63.06         289 
 63.08         318 
 63.1          379 
 63.12         451 
 63.14         508 
 63.16         538 
 63.18         615 
 63.2          609 
 63.22         583 
 63.24         623 
 63.26         566 
 63.28         585 
 63.3          594 
 63.32         567 
 63.34         493 
 63.36         474 
 63.38         465 
 63.4          388 
 63.42         380 
 63.44         330 
 63.46         312 
 63.48         265 
 63.5          228 
 63.52         196 
 63.54         166 
 63.56         118 
 63.58         139 
 63.6          125 
 63.62         126 
 63.64         101 
 63.66         91 
 63.68         102 
 63.7          86 
 63.72         80 
 63.74         88 
 63.76         74 
 63.78         100 
 63.8          77 
 63.82         85 
 63.84         93 
 63.86         64 
 63.88         80 
 63.9          91 
 63.92         89 
 63.94         78 
 63.96         94 
 63.98         92 
 64            71 
 64.02         90 
 64.04         80 
 64.06         88 
 64.08         106 
 64.1          97 
 64.12         83 
 64.14         96 
 64.16         93 
 64.18         98 
 64.2          88 
 64.22         113 
 64.24         109 
 64.26         103 
 64.28         128 
 64.3          144 
 64.32         151 
 64.34         173 
 64.36         185 
 64.38         167 
 64.4          214 
 64.42         206 
 64.44         224 
 64.46         234 
 64.48         263 
 64.5          261 
 64.52         273 
 64.54         277 
 64.56         295 
 64.58         276 
 64.6          317 
 64.62         324 
 64.64         286 
 64.66         297 
 64.68         326 
 64.7          287 
 64.72         308 
 64.74         313 
 64.76         329 
 64.78         316 
 64.8          333 
 64.82         342 
 64.84         388 
 64.86         354 
 64.88         388 
 64.9          403 
 64.92         467 
 64.94         485 
 64.96         551 
 64.98         521 
 65            579 
 65.02         651 
 65.04         715 
 65.06         773 
 65.08         778 
 65.1          911 
 65.12         969 
 65.14         1053 
 65.16         1136 
 65.18         1126 
 65.2          1121 
 65.22         1136 
 65.24         1068 
 65.26         1092 
 65.28         1154 
 65.3          1076 
 65.32         1027 
 65.34         968 
 65.36         942 
 65.38         909 
 65.4          953 
 65.42         960 
 65.44         896 
 65.46         943 
 65.48         891 
 65.5          910 
 65.52         924 
 65.54         961 
 65.56         977 
 65.58         997 
 65.6          1045 
 65.62         997 
 65.64         986 
 65.66         938 
 65.68         935 
 65.7          855 
 65.72         821 
 65.74         807 
 65.76         745 
 65.78         705 
 65.8          638 
 65.82         574 
 65.84         510 
 65.86         445 
 65.88         394 
 65.9          380 
 65.92         332 
 65.94         287 
 65.96         243 
 65.98         213 
 66            183 
 66.02         190 
 66.04         139 
 66.06         145 
 66.08         143 
 66.1          134 
 66.12         122 
 66.14         92 
 66.16         117 
 66.18         99 
 66.2          115 
 66.22         101 
 66.24         92 
 66.26         96 
 66.28         101 
 66.3          81 
 66.32         100 
 66.34         96 
 66.36         81 
 66.38         82 
 66.4          90 
 66.42         83 
 66.44         96 
 66.46         90 
 66.48         111 
 66.5          89 
 66.52         84 
 66.54         74 
 66.56         101 
 66.58         86 
 66.6          109 
 66.62         104 
 66.64         127 
 66.66         100 
 66.68         105 
 66.7          94 
 66.72         101 
 66.74         116 
 66.76         107 
 66.78         117 
 66.8          99 
 66.82         108 
 66.84         111 
 66.86         123 
 66.88         109 
 66.9          109 
 66.92         111 
 66.94         101 
 66.96         105 
 66.98         110 
 67            112 
 67.02         106 
 67.04         130 
 67.06         129 
 67.08         104 
 67.1          113 
 67.12         126 
 67.14         124 
 67.16         119 
 67.18         120 
 67.2          131 
 67.22         94 
 67.24         129 
 67.26         131 
 67.28         116 
 67.3          109 
 67.32         120 
 67.34         133 
 67.36         158 
 67.38         156 
 67.4          179 
 67.42         171 
 67.44         176 
 67.46         228 
 67.48         248 
 67.5          271 
 67.52         306 
 67.54         327 
 67.56         325 
 67.58         375 
 67.6          382 
 67.62         408 
 67.64         454 
 67.66         468 
 67.68         492 
 67.7          492 
 67.72         513 
 67.74         567 
 67.76         575 
 67.78         608 
 67.8          717 
 67.82         684 
 67.84         773 
 67.86         822 
 67.88         829 
 67.9          839 
 67.92         849 
 67.94         895 
 67.96         899 
 67.98         844 
 68            826 
 68.02         899 
 68.04         850 
 68.06         742 
 68.08         695 
 68.1          719 
 68.12         663 
 68.14         613 
 68.16         610 
 68.18         556 
 68.2          469 
 68.22         429 
 68.24         363 
 68.26         341 
 68.28         314 
 68.3          305 
 68.32         254 
 68.34         230 
 68.36         220 
 68.38         216 
 68.4          202 
 68.42         187 
 68.44         204 
 68.46         180 
 68.48         167 
 68.5          189 
 68.52         172 
 68.54         195 
 68.56         213 
 68.58         221 
 68.6          203 
 68.62         255 
 68.64         285 
 68.66         321 
 68.68         345 
 68.7          379 
 68.72         386 
 68.74         414 
 68.76         455 
 68.78         485 
 68.8          556 
 68.82         532 
 68.84         560 
 68.86         582 
 68.88         599 
 68.9          609 
 68.92         639 
 68.94         595 
 68.96         646 
 68.98         625 
 69            611 
 69.02         578 
 69.04         590 
 69.06         547 
 69.08         526 
 69.1          492 
 69.12         473 
 69.14         477 
 69.16         439 
 69.18         435 
 69.2          379 
 69.22         392 
 69.24         358 
 69.26         364 
 69.28         357 
 69.3          348 
 69.32         362 
 69.34         382 
 69.36         402 
 69.38         414 
 69.4          442 
 69.42         549 
 69.44         500 
 69.46         584 
 69.48         590 
 69.5          644 
 69.52         613 
 69.54         639 
 69.56         626 
 69.58         610 
 69.6          578 
 69.62         526 
 69.64         532 
 69.66         497 
 69.68         461 
 69.7          442 
 69.72         410 
 69.74         412 
 69.76         376 
 69.78         332 
 69.8          302 
 69.82         284 
 69.84         257 
 69.86         223 
 69.88         187 
 69.9          172 
 69.92         158 
 69.94         144 
 69.96         136 
 69.98         124 
 70            139 
 70.02         97 
 70.04         101 
 70.06         98 
 70.08         101 
 70.1          92 
 70.12         95 
 70.14         82 
 70.16         101 
 70.18         89 
 70.2          96 
 70.22         108 
 70.24         81 
 70.26         94 
 70.28         88 
 70.3          80 
 70.32         89 
 70.34         67 
 70.36         68 
 70.38         71 
 70.4          81 
 70.42         66 
 70.44         77 
 70.46         86 
 70.48         71 
 70.5          81 
 70.52         93 
 70.54         70 
 70.56         84 
 70.58         78 
 70.6          71 
 70.62         75 
 70.64         77 
 70.66         82 
 70.68         62 
 70.7          71 
 70.72         61 
 70.74         71 
 70.76         85 
 70.78         71 
 70.8          71 
 70.82         73 
 70.84         79 
 70.86         80 
 70.88         64 
 70.9          82 
 70.92         78 
 70.94         74 
 70.96         81 
 70.98         92 
 71            99 
 71.02         89 
 71.04         100 
 71.06         82 
 71.08         113 
 71.1          108 
 71.12         145 
 71.14         134 
 71.16         166 
 71.18         164 
 71.2          182 
 71.22         216 
 71.24         233 
 71.26         260 
 71.28         283 
 71.3          274 
 71.32         299 
 71.34         288 
 71.36         297 
 71.38         332 
 71.4          332 
 71.42         353 
 71.44         312 
 71.46         326 
 71.48         343 
 71.5          288 
 71.52         292 
 71.54         283 
 71.56         295 
 71.58         253 
 71.6          217 
 71.62         269 
 71.64         214 
 71.66         215 
 71.68         216 
 71.7          158 
 71.72         163 
 71.74         167 
 71.76         187 
 71.78         136 
 71.8          167 
 71.82         182 
 71.84         181 
 71.86         182 
 71.88         195 
 71.9          199 
 71.92         247 
 71.94         250 
 71.96         268 
 71.98         323 
 72            342 
 72.02         355 
 72.04         388 
 72.06         425 
 72.08         451 
 72.1          492 
 72.12         501 
 72.14         510 
 72.16         516 
 72.18         546 
 72.2          579 
 72.22         585 
 72.24         548 
 72.26         662 
 72.28         606 
 72.3          596 
 72.32         559 
 72.34         541 
 72.36         528 
 72.38         520 
 72.4          568 
 72.42         492 
 72.44         492 
 72.46         476 
 72.48         430 
 72.5          378 
 72.52         427 
 72.54         403 
 72.56         382 
 72.58         346 
 72.6          374 
 72.62         352 
 72.64         336 
 72.66         293 
 72.68         306 
 72.7          287 
 72.72         281 
 72.74         266 
 72.76         272 
 72.78         259 
 72.8          260 
 72.82         223 
 72.84         264 
 72.86         255 
 72.88         289 
 72.9          289 
 72.92         290 
 72.94         292 
 72.96         346 
 72.98         362 
 73            400 
 73.02         403 
 73.04         417 
 73.06         455 
 73.08         452 
 73.1          515 
 73.12         474 
 73.14         532 
 73.16         558 
 73.18         618 
 73.2          563 
 73.22         569 
 73.24         606 
 73.26         583 
 73.28         553 
 73.3          557 
 73.32         555 
 73.34         564 
 73.36         562 
 73.38         572 
 73.4          535 
 73.42         528 
 73.44         466 
 73.46         510 
 73.48         482 
 73.5          458 
 73.52         475 
 73.54         488 
 73.56         486 
 73.58         514 
 73.6          526 
 73.62         504 
 73.64         517 
 73.66         526 
 73.68         572 
 73.7          520 
 73.72         559 
 73.74         578 
 73.76         583 
 73.78         548 
 73.8          570 
 73.82         583 
 73.84         516 
 73.86         576 
 73.88         510 
 73.9          530 
 73.92         519 
 73.93999      459 
 73.96         433 
 73.98         433 
 74            356 
 74.02         357 
 74.04         353 
 74.06         291 
 74.08         269 
 74.1          244 
 74.12         221 
 74.14         231 
 74.16         207 
 74.18         193 
 74.2          177 
 74.22         163 
 74.24         147 
 74.26         121 
 74.28         146 
 74.3          144 
 74.32         131 
 74.34         121 
 74.36         118 
 74.38         110 
 74.4          110 
 74.42         114 
 74.43999      78 
 74.46         87 
 74.48         82 
 74.5          82 
 74.52         93 
 74.54         85 
 74.56         82 
 74.58         89 
 74.6          67 
 74.62         92 
 74.64         78 
 74.66         86 
 74.68         65 
 74.7          71 
 74.72         83 
 74.74         75 
 74.76         83 
 74.78         79 
 74.8          79 
 74.82         92 
 74.84         73 
 74.86         67 
 74.88         69 
 74.9          103 
 74.92         75 
 74.93999      73 
 74.96         86 
 74.98         84 
 75            64 
