F900vonP400_P7  Original Data
 3151 
 12            503 
 12.02         522 
 12.04         499 
 12.06         496 
 12.08         477 
 12.1          501 
 12.12         504 
 12.14         486 
 12.16         487 
 12.18         499 
 12.2          497 
 12.22         484 
 12.24         491 
 12.26         554 
 12.28         514 
 12.3          549 
 12.32         510 
 12.34         528 
 12.36         505 
 12.38         476 
 12.4          551 
 12.42         488 
 12.44         511 
 12.46         541 
 12.48         514 
 12.5          481 
 12.52         540 
 12.54         491 
 12.56         491 
 12.58         531 
 12.6          538 
 12.62         487 
 12.64         529 
 12.66         472 
 12.68         513 
 12.7          478 
 12.72         523 
 12.74         522 
 12.76         505 
 12.78         535 
 12.8          515 
 12.82         521 
 12.84         526 
 12.86         523 
 12.88         500 
 12.9          504 
 12.92         512 
 12.94         524 
 12.96         487 
 12.98         503 
 13            506 
 13.02         523 
 13.04         461 
 13.06         513 
 13.08         504 
 13.1          518 
 13.12         506 
 13.14         529 
 13.16         527 
 13.18         497 
 13.2          544 
 13.22         505 
 13.24         527 
 13.26         509 
 13.28         509 
 13.3          498 
 13.32         557 
 13.34         563 
 13.36         556 
 13.38         564 
 13.4          543 
 13.42         541 
 13.44         552 
 13.46         521 
 13.48         502 
 13.5          553 
 13.52         467 
 13.54         487 
 13.56         424 
 13.58         434 
 13.6          472 
 13.62         503 
 13.64         397 
 13.66         462 
 13.68         439 
 13.7          427 
 13.72         423 
 13.74         454 
 13.76         455 
 13.78         381 
 13.8          445 
 13.82         400 
 13.84         485 
 13.86         420 
 13.88         409 
 13.9          429 
 13.92         400 
 13.94         420 
 13.96         421 
 13.98         419 
 14            451 
 14.02         423 
 14.04         417 
 14.06         377 
 14.08         394 
 14.1          381 
 14.12         411 
 14.14         414 
 14.16         377 
 14.18         393 
 14.2          366 
 14.22         403 
 14.24         391 
 14.26         392 
 14.28         385 
 14.3          402 
 14.32         405 
 14.34         424 
 14.36         374 
 14.38         414 
 14.4          428 
 14.42         449 
 14.44         498 
 14.46         483 
 14.48         519 
 14.5          482 
 14.52         600 
 14.54         610 
 14.56         584 
 14.58         735 
 14.6          765 
 14.62         767 
 14.64         872 
 14.66         990 
 14.68         1065 
 14.7          1202 
 14.72         1413 
 14.74         1615 
 14.76         1758 
 14.78         2052 
 14.8          2449 
 14.82         2828 
 14.84         3204 
 14.86         3573 
 14.88         3726 
 14.9          3525 
 14.92         3210 
 14.94         2747 
 14.96         1945 
 14.98         1514 
 15            1026 
 15.02         743 
 15.04         502 
 15.06         396 
 15.08         411 
 15.1          323 
 15.12         349 
 15.14         311 
 15.16         320 
 15.18         338 
 15.2          336 
 15.22         283 
 15.24         289 
 15.26         306 
 15.28         269 
 15.3          290 
 15.32         286 
 15.34         258 
 15.36         259 
 15.38         243 
 15.4          272 
 15.42         263 
 15.44         244 
 15.46         261 
 15.48         268 
 15.5          282 
 15.52         258 
 15.54         250 
 15.56         280 
 15.58         254 
 15.6          274 
 15.62         266 
 15.64         289 
 15.66         249 
 15.68         238 
 15.7          267 
 15.72         264 
 15.74         244 
 15.76         208 
 15.78         249 
 15.8          281 
 15.82         247 
 15.84         211 
 15.86         245 
 15.88         236 
 15.9          244 
 15.92         250 
 15.94         269 
 15.96         209 
 15.98         253 
 16            247 
 16.02         220 
 16.04         220 
 16.06         226 
 16.08         258 
 16.1          217 
 16.12         226 
 16.14         219 
 16.16         226 
 16.18         233 
 16.2          235 
 16.22         240 
 16.24         229 
 16.26         217 
 16.28         235 
 16.3          225 
 16.32         222 
 16.34         238 
 16.36         213 
 16.38         232 
 16.4          223 
 16.42         248 
 16.44         214 
 16.46         226 
 16.48         203 
 16.5          222 
 16.52         204 
 16.54         213 
 16.56         237 
 16.58         241 
 16.6          230 
 16.62         233 
 16.64         218 
 16.66         217 
 16.68         227 
 16.7          193 
 16.72         237 
 16.74         223 
 16.76         260 
 16.78         259 
 16.8          233 
 16.82         241 
 16.84         232 
 16.86         285 
 16.88         260 
 16.9          249 
 16.92         260 
 16.94         248 
 16.96         250 
 16.98         300 
 17            286 
 17.02         306 
 17.04         362 
 17.06         400 
 17.08         400 
 17.1          456 
 17.12         460 
 17.14         485 
 17.16         540 
 17.18         551 
 17.2          490 
 17.22         501 
 17.24         425 
 17.26         381 
 17.28         358 
 17.3          331 
 17.32         316 
 17.34         270 
 17.36         272 
 17.38         266 
 17.4          267 
 17.42         253 
 17.44         265 
 17.46         271 
 17.48         295 
 17.5          253 
 17.52         285 
 17.54         279 
 17.56         308 
 17.58         343 
 17.6          326 
 17.62         329 
 17.64         314 
 17.66         303 
 17.68         280 
 17.7          230 
 17.72         261 
 17.74         259 
 17.76         214 
 17.78         255 
 17.8          248 
 17.82         229 
 17.84         233 
 17.86         242 
 17.88         255 
 17.9          275 
 17.92         290 
 17.94         322 
 17.96         332 
 17.98         354 
 18            406 
 18.02         414 
 18.04         442 
 18.06         432 
 18.08         436 
 18.1          418 
 18.12         457 
 18.14         395 
 18.16         352 
 18.18         298 
 18.2          264 
 18.22         259 
 18.24         196 
 18.26         210 
 18.28         188 
 18.3          185 
 18.32         182 
 18.34         184 
 18.36         179 
 18.38         182 
 18.4          202 
 18.42         158 
 18.44         180 
 18.46         166 
 18.48         153 
 18.5          173 
 18.52         179 
 18.54         189 
 18.56         172 
 18.58         177 
 18.6          170 
 18.62         171 
 18.64         168 
 18.66         179 
 18.68         164 
 18.7          166 
 18.72         168 
 18.74         195 
 18.76         147 
 18.78         164 
 18.8          165 
 18.82         174 
 18.84         140 
 18.86         170 
 18.88         170 
 18.9          163 
 18.92         161 
 18.94         183 
 18.96         157 
 18.98         164 
 19            167 
 19.02         189 
 19.04         187 
 19.06         159 
 19.08         161 
 19.1          161 
 19.12         148 
 19.14         179 
 19.16         161 
 19.18         161 
 19.2          153 
 19.22         152 
 19.24         182 
 19.26         190 
 19.28         148 
 19.3          171 
 19.32         158 
 19.34         172 
 19.36         155 
 19.38         165 
 19.4          168 
 19.42         158 
 19.44         162 
 19.46         150 
 19.48         137 
 19.5          156 
 19.52         150 
 19.54         160 
 19.56         161 
 19.58         184 
 19.6          187 
 19.62         175 
 19.64         163 
 19.66         165 
 19.68         170 
 19.7          174 
 19.72         168 
 19.74         170 
 19.76         175 
 19.78         169 
 19.8          196 
 19.82         159 
 19.84         175 
 19.86         182 
 19.88         164 
 19.9          194 
 19.92         194 
 19.94         168 
 19.96         190 
 19.98         198 
 20            212 
 20.02         182 
 20.04         221 
 20.06         217 
 20.08         234 
 20.1          230 
 20.12         225 
 20.14         210 
 20.16         260 
 20.18         254 
 20.2          306 
 20.22         276 
 20.24         301 
 20.26         318 
 20.28         343 
 20.3          349 
 20.32         308 
 20.34         305 
 20.36         325 
 20.38         286 
 20.4          247 
 20.42         251 
 20.44         258 
 20.46         258 
 20.48         243 
 20.5          272 
 20.52         268 
 20.54         315 
 20.56         285 
 20.58         319 
 20.6          308 
 20.62         394 
 20.64         385 
 20.66         442 
 20.68         551 
 20.7          558 
 20.72         668 
 20.74         791 
 20.76         899 
 20.78         989 
 20.8          1217 
 20.82         1417 
 20.84         1626 
 20.86         1951 
 20.88         2397 
 20.9          2799 
 20.92         3408 
 20.94         4147 
 20.96         5148 
 20.98         6272 
 21            7381 
 21.02         8940 
 21.04         10085 
 21.06         11495 
 21.08         12213 
 21.1          12432 
 21.12         12155 
 21.14         11080 
 21.16         10278 
 21.18         8925 
 21.2          8389 
 21.22         7851 
 21.24         7814 
 21.26         8077 
 21.28         8226 
 21.3          8284 
 21.32         7816 
 21.34         7019 
 21.36         5666 
 21.38         4802 
 21.4          3386 
 21.42         2625 
 21.44         1754 
 21.46         1446 
 21.48         1108 
 21.5          858 
 21.52         832 
 21.54         776 
 21.56         696 
 21.58         658 
 21.6          627 
 21.62         583 
 21.64         485 
 21.66         397 
 21.68         389 
 21.7          294 
 21.72         289 
 21.74         271 
 21.76         263 
 21.78         233 
 21.8          195 
 21.82         193 
 21.84         198 
 21.86         174 
 21.88         188 
 21.9          181 
 21.92         193 
 21.94         193 
 21.96         182 
 21.98         172 
 22            176 
 22.02         171 
 22.04         184 
 22.06         178 
 22.08         167 
 22.1          160 
 22.12         158 
 22.14         186 
 22.16         143 
 22.18         184 
 22.2          149 
 22.22         143 
 22.24         151 
 22.26         161 
 22.28         159 
 22.3          145 
 22.32         166 
 22.34         142 
 22.36         153 
 22.38         166 
 22.4          169 
 22.42         144 
 22.44         156 
 22.46         176 
 22.48         179 
 22.5          165 
 22.52         163 
 22.54         169 
 22.56         144 
 22.58         186 
 22.6          174 
 22.62         175 
 22.64         184 
 22.66         181 
 22.68         177 
 22.7          163 
 22.72         158 
 22.74         172 
 22.76         186 
 22.78         191 
 22.8          198 
 22.82         156 
 22.84         172 
 22.86         204 
 22.88         167 
 22.9          174 
 22.92         183 
 22.94         231 
 22.96         192 
 22.98         216 
 23            223 
 23.02         211 
 23.04         226 
 23.06         251 
 23.08         245 
 23.1          245 
 23.12         269 
 23.14         241 
 23.16         247 
 23.18         240 
 23.2          198 
 23.22         203 
 23.24         218 
 23.26         215 
 23.28         189 
 23.3          205 
 23.32         182 
 23.34         193 
 23.36         204 
 23.38         201 
 23.4          200 
 23.42         226 
 23.44         211 
 23.46         228 
 23.48         191 
 23.5          209 
 23.52         195 
 23.54         200 
 23.56         193 
 23.58         179 
 23.6          186 
 23.62         157 
 23.64         179 
 23.66         174 
 23.68         147 
 23.7          176 
 23.72         157 
 23.74         171 
 23.76         174 
 23.78         200 
 23.8          200 
 23.82         199 
 23.84         247 
 23.86         201 
 23.88         231 
 23.9          242 
 23.92         222 
 23.94         245 
 23.96         225 
 23.98         245 
 24            198 
 24.02         209 
 24.04         204 
 24.06         166 
 24.08         179 
 24.1          148 
 24.12         145 
 24.14         151 
 24.16         174 
 24.18         142 
 24.2          157 
 24.22         174 
 24.24         163 
 24.26         149 
 24.28         164 
 24.3          175 
 24.32         178 
 24.34         172 
 24.36         190 
 24.38         199 
 24.4          204 
 24.42         234 
 24.44         254 
 24.46         265 
 24.48         294 
 24.5          318 
 24.52         371 
 24.54         402 
 24.56         444 
 24.58         493 
 24.6          590 
 24.62         716 
 24.64         775 
 24.66         934 
 24.68         993 
 24.7          1276 
 24.72         1441 
 24.74         1890 
 24.76         2015 
 24.78         2690 
 24.8          3211 
 24.82         4040 
 24.84         4910 
 24.86         6431 
 24.88         8084 
 24.9          9562 
 24.92         11713 
 24.94         12926 
 24.96         13798 
 24.98         14081 
 25            12523 
 25.02         11024 
 25.04         8798 
 25.06         6850 
 25.08         4680 
 25.1          3308 
 25.12         2099 
 25.14         1358 
 25.16         946 
 25.18         719 
 25.2          579 
 25.22         480 
 25.24         410 
 25.26         362 
 25.28         361 
 25.3          325 
 25.32         326 
 25.34         306 
 25.36         289 
 25.38         300 
 25.4          278 
 25.42         314 
 25.44         310 
 25.46         363 
 25.48         350 
 25.5          371 
 25.52         414 
 25.54         484 
 25.56         530 
 25.58         584 
 25.6          640 
 25.62         769 
 25.64         846 
 25.66         896 
 25.68         1004 
 25.7          1010 
 25.72         1095 
 25.74         1106 
 25.76         1130 
 25.78         1047 
 25.8          1058 
 25.82         989 
 25.84         836 
 25.86         801 
 25.88         724 
 25.9          598 
 25.92         544 
 25.94         430 
 25.96         352 
 25.98         347 
 26            320 
 26.02         303 
 26.04         318 
 26.06         306 
 26.08         315 
 26.1          330 
 26.12         297 
 26.14         339 
 26.16         349 
 26.18         354 
 26.2          305 
 26.22         310 
 26.24         274 
 26.26         250 
 26.28         211 
 26.3          202 
 26.32         180 
 26.34         200 
 26.36         167 
 26.38         183 
 26.4          170 
 26.42         182 
 26.44         171 
 26.46         156 
 26.48         170 
 26.5          191 
 26.52         169 
 26.54         158 
 26.56         150 
 26.58         143 
 26.6          136 
 26.62         141 
 26.64         155 
 26.66         132 
 26.68         153 
 26.7          148 
 26.72         139 
 26.74         151 
 26.76         160 
 26.78         169 
 26.8          176 
 26.82         192 
 26.84         176 
 26.86         187 
 26.88         164 
 26.9          164 
 26.92         166 
 26.94         171 
 26.96         148 
 26.98         126 
 27            141 
 27.02         144 
 27.04         130 
 27.06         120 
 27.08         122 
 27.1          140 
 27.12         149 
 27.14         123 
 27.16         159 
 27.18         140 
 27.2          135 
 27.22         157 
 27.24         136 
 27.26         146 
 27.28         170 
 27.3          135 
 27.32         161 
 27.34         149 
 27.36         137 
 27.38         139 
 27.4          140 
 27.42         115 
 27.44         135 
 27.46         121 
 27.48         117 
 27.5          137 
 27.52         127 
 27.54         116 
 27.56         138 
 27.58         126 
 27.6          113 
 27.62         134 
 27.64         120 
 27.66         117 
 27.68         137 
 27.7          124 
 27.72         125 
 27.74         131 
 27.76         136 
 27.78         146 
 27.8          120 
 27.82         117 
 27.84         164 
 27.86         134 
 27.88         125 
 27.9          143 
 27.92         123 
 27.94         144 
 27.96         119 
 27.98         166 
 28            150 
 28.02         136 
 28.04         132 
 28.06         132 
 28.08         133 
 28.1          147 
 28.12         113 
 28.14         135 
 28.16         126 
 28.18         138 
 28.2          127 
 28.22         134 
 28.24         126 
 28.26         126 
 28.28         140 
 28.3          145 
 28.32         146 
 28.34         130 
 28.36         125 
 28.38         116 
 28.4          133 
 28.42         158 
 28.44         123 
 28.46         124 
 28.48         144 
 28.5          130 
 28.52         133 
 28.54         115 
 28.56         120 
 28.58         118 
 28.6          113 
 28.62         107 
 28.64         107 
 28.66         123 
 28.68         99 
 28.7          115 
 28.72         119 
 28.74         113 
 28.76         96 
 28.78         113 
 28.8          105 
 28.82         114 
 28.84         112 
 28.86         121 
 28.88         137 
 28.9          124 
 28.92         138 
 28.94         122 
 28.96         128 
 28.98         112 
 29            171 
 29.02         157 
 29.04         158 
 29.06         128 
 29.08         142 
 29.1          165 
 29.12         174 
 29.14         148 
 29.16         143 
 29.18         166 
 29.2          167 
 29.22         143 
 29.24         131 
 29.26         149 
 29.28         129 
 29.3          142 
 29.32         132 
 29.34         135 
 29.36         135 
 29.38         130 
 29.4          126 
 29.42         127 
 29.44         147 
 29.46         156 
 29.48         144 
 29.5          161 
 29.52         169 
 29.54         158 
 29.56         162 
 29.58         183 
 29.6          170 
 29.62         207 
 29.64         239 
 29.66         196 
 29.68         208 
 29.7          195 
 29.72         234 
 29.74         242 
 29.76         232 
 29.78         257 
 29.8          296 
 29.82         291 
 29.84         274 
 29.86         342 
 29.88         378 
 29.9          437 
 29.92         453 
 29.94         524 
 29.96         604 
 29.98         677 
 30            785 
 30.02         1036 
 30.04         1150 
 30.06         1432 
 30.08         1747 
 30.1          2334 
 30.12         2870 
 30.14         3894 
 30.16         4778 
 30.18         5875 
 30.2          6718 
 30.22         7382 
 30.24         7822 
 30.26         7682 
 30.28         7077 
 30.3          6201 
 30.32         5202 
 30.34         4208 
 30.36         3131 
 30.38         2384 
 30.4          1645 
 30.42         1320 
 30.44         956 
 30.46         780 
 30.48         581 
 30.5          563 
 30.52         433 
 30.54         368 
 30.56         352 
 30.58         322 
 30.6          334 
 30.62         285 
 30.64         263 
 30.66         229 
 30.68         214 
 30.7          196 
 30.72         207 
 30.74         192 
 30.76         181 
 30.78         178 
 30.8          164 
 30.82         180 
 30.84         147 
 30.86         175 
 30.88         162 
 30.9          162 
 30.92         182 
 30.94         158 
 30.96         144 
 30.98         151 
 31            162 
 31.02         150 
 31.04         164 
 31.06         149 
 31.08         145 
 31.1          163 
 31.12         161 
 31.14         165 
 31.16         186 
 31.18         199 
 31.2          208 
 31.22         196 
 31.24         189 
 31.26         201 
 31.28         193 
 31.3          188 
 31.32         194 
 31.34         181 
 31.36         166 
 31.38         161 
 31.4          136 
 31.42         168 
 31.44         159 
 31.46         146 
 31.48         167 
 31.5          151 
 31.52         170 
 31.54         197 
 31.56         186 
 31.58         173 
 31.6          175 
 31.62         181 
 31.64         174 
 31.66         187 
 31.68         153 
 31.7          149 
 31.72         143 
 31.74         138 
 31.76         129 
 31.78         110 
 31.8          108 
 31.82         112 
 31.84         102 
 31.86         85 
 31.88         113 
 31.9          110 
 31.92         112 
 31.94         92 
 31.96         97 
 31.98         96 
 32            93 
 32.02         112 
 32.04         78 
 32.06         117 
 32.08         94 
 32.1          104 
 32.12         104 
 32.14         89 
 32.16         107 
 32.18         93 
 32.2          73 
 32.22         95 
 32.24         88 
 32.26         88 
 32.28         84 
 32.3          111 
 32.32         103 
 32.34         95 
 32.36         105 
 32.38         114 
 32.4          86 
 32.42         105 
 32.44         90 
 32.46         92 
 32.48         93 
 32.5          88 
 32.52         105 
 32.54         115 
 32.56         109 
 32.58         112 
 32.6          83 
 32.62         99 
 32.64         103 
 32.66         102 
 32.68         108 
 32.7          107 
 32.72         111 
 32.74         136 
 32.76         122 
 32.78         152 
 32.8          142 
 32.82         173 
 32.84         165 
 32.86         161 
 32.88         186 
 32.9          208 
 32.92         249 
 32.94         282 
 32.96         302 
 32.98         371 
 33            423 
 33.02         493 
 33.04         619 
 33.06         821 
 33.08         951 
 33.1          1190 
 33.12         1546 
 33.14         1712 
 33.16         1974 
 33.18         2178 
 33.2          2320 
 33.22         2359 
 33.24         2162 
 33.26         1995 
 33.28         1712 
 33.3          1530 
 33.32         1130 
 33.34         999 
 33.36         806 
 33.38         662 
 33.4          552 
 33.42         461 
 33.44         423 
 33.46         405 
 33.48         386 
 33.5          409 
 33.52         458 
 33.54         556 
 33.56         650 
 33.58         749 
 33.6          893 
 33.62         1145 
 33.64         1445 
 33.66         1834 
 33.68         2184 
 33.7          2783 
 33.72         3286 
 33.74         3974 
 33.76         4412 
 33.78         4622 
 33.8          5020 
 33.82         4858 
 33.84         4552 
 33.86         4182 
 33.88         3539 
 33.9          2969 
 33.92         2257 
 33.94         1801 
 33.96         1320 
 33.98         1010 
 34            713 
 34.02         535 
 34.04         409 
 34.06         317 
 34.08         293 
 34.1          243 
 34.12         213 
 34.14         187 
 34.16         164 
 34.18         184 
 34.2          147 
 34.22         132 
 34.24         141 
 34.26         130 
 34.28         129 
 34.3          123 
 34.32         151 
 34.34         99 
 34.36         112 
 34.38         107 
 34.4          106 
 34.42         104 
 34.44         105 
 34.46         103 
 34.48         107 
 34.5          98 
 34.52         114 
 34.54         92 
 34.56         96 
 34.58         117 
 34.6          102 
 34.62         116 
 34.64         100 
 34.66         116 
 34.68         108 
 34.7          91 
 34.72         87 
 34.74         97 
 34.76         117 
 34.78         120 
 34.8          110 
 34.82         86 
 34.84         92 
 34.86         99 
 34.88         106 
 34.9          111 
 34.92         94 
 34.94         116 
 34.96         129 
 34.98         119 
 35            119 
 35.02         125 
 35.04         128 
 35.06         131 
 35.08         132 
 35.1          130 
 35.12         122 
 35.14         130 
 35.16         134 
 35.18         138 
 35.2          151 
 35.22         129 
 35.24         162 
 35.26         115 
 35.28         126 
 35.3          151 
 35.32         168 
 35.34         117 
 35.36         116 
 35.38         130 
 35.4          150 
 35.42         134 
 35.44         139 
 35.46         128 
 35.48         166 
 35.5          154 
 35.52         161 
 35.54         165 
 35.56         170 
 35.58         167 
 35.6          165 
 35.62         164 
 35.64         159 
 35.66         174 
 35.68         165 
 35.7          162 
 35.72         159 
 35.74         163 
 35.76         162 
 35.78         161 
 35.8          156 
 35.82         149 
 35.84         144 
 35.86         145 
 35.88         138 
 35.9          115 
 35.92         131 
 35.94         127 
 35.96         123 
 35.98         114 
 36            114 
 36.02         96 
 36.04         76 
 36.06         100 
 36.08         111 
 36.1          77 
 36.12         96 
 36.14         123 
 36.16         101 
 36.18         91 
 36.2          79 
 36.22         95 
 36.24         98 
 36.26         80 
 36.28         91 
 36.3          98 
 36.32         88 
 36.34         85 
 36.36         69 
 36.38         83 
 36.4          82 
 36.42         74 
 36.44         90 
 36.46         83 
 36.48         86 
 36.5          96 
 36.52         100 
 36.54         100 
 36.56         95 
 36.58         110 
 36.6          111 
 36.62         122 
 36.64         104 
 36.66         129 
 36.68         146 
 36.7          136 
 36.72         147 
 36.74         150 
 36.76         187 
 36.78         168 
 36.8          195 
 36.82         215 
 36.84         229 
 36.86         225 
 36.88         255 
 36.9          243 
 36.92         264 
 36.94         252 
 36.96         256 
 36.98         265 
 37            290 
 37.02         284 
 37.04         324 
 37.06         299 
 37.08         391 
 37.1          346 
 37.12         389 
 37.14         432 
 37.16         439 
 37.18         574 
 37.2          598 
 37.22         859 
 37.24         1035 
 37.26         1328 
 37.28         1654 
 37.3          2049 
 37.32         2405 
 37.34         2906 
 37.36         3245 
 37.38         3700 
 37.4          3768 
 37.42         3951 
 37.44         3969 
 37.46         3992 
 37.48         3739 
 37.5          3696 
 37.52         3395 
 37.54         3059 
 37.56         2659 
 37.58         2382 
 37.6          1967 
 37.62         1591 
 37.64         1371 
 37.66         1065 
 37.68         834 
 37.7          650 
 37.72         574 
 37.74         435 
 37.76         342 
 37.78         325 
 37.8          297 
 37.82         312 
 37.84         270 
 37.86         275 
 37.88         291 
 37.9          262 
 37.92         262 
 37.94         236 
 37.96         259 
 37.98         236 
 38            226 
 38.02         203 
 38.04         171 
 38.06         145 
 38.08         154 
 38.1          160 
 38.12         127 
 38.14         134 
 38.16         149 
 38.18         100 
 38.2          105 
 38.22         107 
 38.24         126 
 38.26         103 
 38.28         111 
 38.3          112 
 38.32         84 
 38.34         116 
 38.36         87 
 38.38         95 
 38.4          91 
 38.42         96 
 38.44         97 
 38.46         101 
 38.48         78 
 38.5          93 
 38.52         90 
 38.54         91 
 38.56         98 
 38.58         81 
 38.6          76 
 38.62         82 
 38.64         97 
 38.66         81 
 38.68         94 
 38.7          71 
 38.72         99 
 38.74         102 
 38.76         87 
 38.78         105 
 38.8          97 
 38.82         97 
 38.84         87 
 38.86         118 
 38.88         117 
 38.9          111 
 38.92         124 
 38.94         131 
 38.96         119 
 38.98         170 
 39            143 
 39.02         180 
 39.04         139 
 39.06         146 
 39.08         155 
 39.1          152 
 39.12         160 
 39.14         163 
 39.16         165 
 39.18         166 
 39.2          149 
 39.22         172 
 39.24         159 
 39.26         173 
 39.28         162 
 39.3          144 
 39.32         155 
 39.34         140 
 39.36         124 
 39.38         130 
 39.4          122 
 39.42         135 
 39.44         110 
 39.46         108 
 39.48         115 
 39.5          119 
 39.52         134 
 39.54         102 
 39.56         131 
 39.58         110 
 39.6          103 
 39.62         116 
 39.64         122 
 39.66         128 
 39.68         140 
 39.7          134 
 39.72         157 
 39.74         165 
 39.76         177 
 39.78         174 
 39.8          205 
 39.82         182 
 39.84         179 
 39.86         181 
 39.88         181 
 39.9          192 
 39.92         144 
 39.94         158 
 39.96         145 
 39.98         152 
 40            146 
 40.02         146 
 40.04         120 
 40.06         123 
 40.08         124 
 40.1          105 
 40.12         121 
 40.14         89 
 40.16         101 
 40.18         97 
 40.2          112 
 40.22         104 
 40.24         87 
 40.26         79 
 40.28         83 
 40.3          100 
 40.32         97 
 40.34         103 
 40.36         85 
 40.38         96 
 40.4          88 
 40.42         81 
 40.44         88 
 40.46         85 
 40.48         94 
 40.5          86 
 40.52         78 
 40.54         100 
 40.56         98 
 40.58         94 
 40.6          108 
 40.62         85 
 40.64         105 
 40.66         97 
 40.68         91 
 40.7          106 
 40.72         103 
 40.74         91 
 40.76         109 
 40.78         98 
 40.8          82 
 40.82         88 
 40.84         100 
 40.86         92 
 40.88         95 
 40.9          89 
 40.92         87 
 40.94         87 
 40.96         92 
 40.98         109 
 41            103 
 41.02         78 
 41.04         93 
 41.06         95 
 41.08         102 
 41.1          81 
 41.12         92 
 41.14         91 
 41.16         104 
 41.18         102 
 41.2          121 
 41.22         117 
 41.24         106 
 41.26         134 
 41.28         130 
 41.3          131 
 41.32         163 
 41.34         142 
 41.36         129 
 41.38         159 
 41.4          173 
 41.42         168 
 41.44         157 
 41.46         162 
 41.48         181 
 41.5          195 
 41.52         175 
 41.54         176 
 41.56         183 
 41.58         194 
 41.6          190 
 41.62         134 
 41.64         156 
 41.66         159 
 41.68         145 
 41.7          137 
 41.72         123 
 41.74         140 
 41.76         103 
 41.78         109 
 41.8          94 
 41.82         97 
 41.84         114 
 41.86         93 
 41.88         98 
 41.9          90 
 41.92         78 
 41.94         94 
 41.96         88 
 41.98         80 
 42            94 
 42.02         95 
 42.04         98 
 42.06         84 
 42.08         85 
 42.1          70 
 42.12         81 
 42.14         87 
 42.16         84 
 42.18         93 
 42.2          89 
 42.22         80 
 42.24         57 
 42.26         71 
 42.28         60 
 42.3          85 
 42.32         81 
 42.34         88 
 42.36         92 
 42.38         95 
 42.4          75 
 42.42         89 
 42.44         90 
 42.46         104 
 42.48         95 
 42.5          100 
 42.52         87 
 42.54         88 
 42.56         101 
 42.58         111 
 42.6          100 
 42.62         102 
 42.64         122 
 42.66         111 
 42.68         118 
 42.7          105 
 42.72         106 
 42.74         99 
 42.76         111 
 42.78         112 
 42.8          112 
 42.82         123 
 42.84         109 
 42.86         124 
 42.88         152 
 42.9          125 
 42.92         136 
 42.94         169 
 42.96         173 
 42.98         195 
 43            220 
 43.02         262 
 43.04         287 
 43.06         365 
 43.08         380 
 43.1          478 
 43.12         508 
 43.14         505 
 43.16         528 
 43.18         505 
 43.2          553 
 43.22         516 
 43.24         509 
 43.26         436 
 43.28         387 
 43.3          389 
 43.32         308 
 43.34         281 
 43.36         193 
 43.38         229 
 43.4          183 
 43.42         196 
 43.44         154 
 43.46         144 
 43.48         139 
 43.5          138 
 43.52         131 
 43.54         117 
 43.56         130 
 43.58         113 
 43.6          132 
 43.62         129 
 43.64         109 
 43.66         129 
 43.68         115 
 43.7          126 
 43.72         127 
 43.74         125 
 43.76         105 
 43.78         101 
 43.8          89 
 43.82         105 
 43.84         91 
 43.86         81 
 43.88         96 
 43.9          93 
 43.92         89 
 43.94         89 
 43.96         103 
 43.98         85 
 44            79 
 44.02         89 
 44.04         84 
 44.06         95 
 44.08         82 
 44.1          91 
 44.12         86 
 44.14         97 
 44.16         97 
 44.18         89 
 44.2          76 
 44.22         84 
 44.24         84 
 44.26         103 
 44.28         89 
 44.3          90 
 44.32         90 
 44.34         83 
 44.36         111 
 44.38         99 
 44.4          101 
 44.42         100 
 44.44         95 
 44.46         94 
 44.48         95 
 44.5          88 
 44.52         100 
 44.54         104 
 44.56         100 
 44.58         89 
 44.6          116 
 44.62         98 
 44.64         81 
 44.66         95 
 44.68         103 
 44.7          97 
 44.72         108 
 44.74         102 
 44.76         99 
 44.78         104 
 44.8          123 
 44.82         116 
 44.84         112 
 44.86         129 
 44.88         139 
 44.9          151 
 44.92         171 
 44.94         180 
 44.96         214 
 44.98         245 
 45            313 
 45.02         381 
 45.04         387 
 45.06         427 
 45.08         526 
 45.1          564 
 45.12         646 
 45.14         621 
 45.16         735 
 45.18         677 
 45.2          758 
 45.22         708 
 45.24         667 
 45.26         721 
 45.28         696 
 45.3          633 
 45.32         608 
 45.34         641 
 45.36         568 
 45.38         571 
 45.4          516 
 45.42         521 
 45.44         458 
 45.46         460 
 45.48         421 
 45.5          429 
 45.52         431 
 45.54         399 
 45.56         456 
 45.58         453 
 45.6          506 
 45.62         577 
 45.64         561 
 45.66         574 
 45.68         618 
 45.7          643 
 45.72         633 
 45.74         588 
 45.76         600 
 45.78         574 
 45.8          504 
 45.82         455 
 45.84         475 
 45.86         402 
 45.88         383 
 45.9          361 
 45.92         312 
 45.94         298 
 45.96         252 
 45.98         250 
 46            230 
 46.02         208 
 46.04         209 
 46.06         184 
 46.08         215 
 46.1          224 
 46.12         239 
 46.14         263 
 46.16         302 
 46.18         255 
 46.2          303 
 46.22         305 
 46.24         333 
 46.26         358 
 46.28         349 
 46.3          357 
 46.32         363 
 46.34         386 
 46.36         378 
 46.38         390 
 46.4          392 
 46.42         381 
 46.44         360 
 46.46         349 
 46.48         343 
 46.5          318 
 46.52         286 
 46.54         257 
 46.56         203 
 46.58         212 
 46.6          182 
 46.62         170 
 46.64         157 
 46.66         143 
 46.68         118 
 46.7          91 
 46.72         115 
 46.74         114 
 46.76         123 
 46.78         104 
 46.8          107 
 46.82         84 
 46.84         98 
 46.86         83 
 46.88         82 
 46.9          99 
 46.92         80 
 46.94         104 
 46.96         76 
 46.98         84 
 47            88 
 47.02         93 
 47.04         80 
 47.06         76 
 47.08         101 
 47.1          85 
 47.12         61 
 47.14         85 
 47.16         64 
 47.18         75 
 47.2          76 
 47.22         79 
 47.24         71 
 47.26         93 
 47.28         92 
 47.3          80 
 47.32         75 
 47.34         80 
 47.36         85 
 47.38         78 
 47.4          85 
 47.42         56 
 47.44         85 
 47.46         78 
 47.48         86 
 47.5          86 
 47.52         81 
 47.54         96 
 47.56         116 
 47.58         81 
 47.6          85 
 47.62         91 
 47.64         88 
 47.66         82 
 47.68         83 
 47.7          81 
 47.72         103 
 47.74         101 
 47.76         101 
 47.78         98 
 47.8          93 
 47.82         104 
 47.84         99 
 47.86         83 
 47.88         98 
 47.9          90 
 47.92         94 
 47.94         112 
 47.96         104 
 47.98         105 
 48            112 
 48.02         114 
 48.04         112 
 48.06         106 
 48.08         118 
 48.1          132 
 48.12         111 
 48.14         154 
 48.16         137 
 48.18         144 
 48.2          148 
 48.22         147 
 48.24         193 
 48.26         192 
 48.28         195 
 48.3          212 
 48.32         226 
 48.34         253 
 48.36         222 
 48.38         268 
 48.4          324 
 48.42         362 
 48.44         360 
 48.46         382 
 48.48         451 
 48.5          581 
 48.52         685 
 48.54         834 
 48.56         1019 
 48.58         1230 
 48.6          1479 
 48.62         1695 
 48.64         2005 
 48.66         2094 
 48.68         2323 
 48.7          2349 
 48.72         2227 
 48.74         2455 
 48.76         2249 
 48.78         2096 
 48.8          2019 
 48.82         1762 
 48.84         1663 
 48.86         1523 
 48.88         1518 
 48.9          1485 
 48.92         1422 
 48.94         1424 
 48.96         1432 
 48.98         1476 
 49            1387 
 49.02         1385 
 49.04         1311 
 49.06         1225 
 49.08         1216 
 49.1          1050 
 49.12         955 
 49.14         856 
 49.16         730 
 49.18         639 
 49.2          572 
 49.22         436 
 49.24         337 
 49.26         323 
 49.28         269 
 49.3          241 
 49.32         211 
 49.34         202 
 49.36         169 
 49.38         168 
 49.4          126 
 49.42         140 
 49.44         121 
 49.46         110 
 49.48         113 
 49.5          111 
 49.52         101 
 49.54         105 
 49.56         113 
 49.58         97 
 49.6          114 
 49.62         85 
 49.64         95 
 49.66         97 
 49.68         111 
 49.7          103 
 49.72         97 
 49.74         99 
 49.76         88 
 49.78         102 
 49.8          116 
 49.82         92 
 49.84         105 
 49.86         90 
 49.88         95 
 49.9          103 
 49.92         100 
 49.94         92 
 49.96         101 
 49.98         102 
 50            109 
 50.02         105 
 50.04         95 
 50.06         95 
 50.08         84 
 50.1          83 
 50.12         78 
 50.14         86 
 50.16         79 
 50.18         79 
 50.2          85 
 50.22         90 
 50.24         80 
 50.26         82 
 50.28         77 
 50.3          82 
 50.32         84 
 50.34         87 
 50.36         84 
 50.38         85 
 50.4          86 
 50.42         81 
 50.44         107 
 50.46         81 
 50.48         98 
 50.5          104 
 50.52         99 
 50.54         99 
 50.56         101 
 50.58         121 
 50.6          117 
 50.62         133 
 50.64         128 
 50.66         140 
 50.68         136 
 50.7          152 
 50.72         186 
 50.74         196 
 50.76         224 
 50.78         289 
 50.8          303 
 50.82         358 
 50.84         440 
 50.86         443 
 50.88         492 
 50.9          520 
 50.92         573 
 50.94         548 
 50.96         550 
 50.98         642 
 51            635 
 51.02         606 
 51.04         629 
 51.06         637 
 51.08         594 
 51.1          555 
 51.12         586 
 51.14         536 
 51.16         518 
 51.18         493 
 51.2          482 
 51.22         483 
 51.24         528 
 51.26         508 
 51.28         566 
 51.3          595 
 51.32         758 
 51.34         823 
 51.36         974 
 51.38         1218 
 51.4          1316 
 51.42         1518 
 51.44         1673 
 51.46         1752 
 51.48         1789 
 51.5          1740 
 51.52         1759 
 51.54         1753 
 51.56         1760 
 51.58         1604 
 51.6          1586 
 51.62         1442 
 51.64         1324 
 51.66         1244 
 51.68         1049 
 51.7          1014 
 51.72         853 
 51.74         874 
 51.76         709 
 51.78         583 
 51.8          553 
 51.82         460 
 51.84         395 
 51.86         357 
 51.88         306 
 51.9          277 
 51.92         229 
 51.94         188 
 51.96         181 
 51.98         175 
 52            133 
 52.02         124 
 52.04         126 
 52.06         106 
 52.08         104 
 52.1          89 
 52.12         90 
 52.14         112 
 52.16         95 
 52.18         91 
 52.2          94 
 52.22         102 
 52.24         92 
 52.26         89 
 52.28         97 
 52.3          104 
 52.32         94 
 52.34         73 
 52.36         92 
 52.38         98 
 52.4          111 
 52.42         94 
 52.44         80 
 52.46         78 
 52.48         98 
 52.5          101 
 52.52         89 
 52.54         88 
 52.56         90 
 52.58         83 
 52.6          101 
 52.62         94 
 52.64         110 
 52.66         99 
 52.68         95 
 52.7          97 
 52.72         110 
 52.74         83 
 52.76         108 
 52.78         99 
 52.8          102 
 52.82         87 
 52.84         97 
 52.86         122 
 52.88         122 
 52.9          133 
 52.92         124 
 52.94         133 
 52.96         119 
 52.98         123 
 53            139 
 53.02         148 
 53.04         140 
 53.06         168 
 53.08         171 
 53.1          191 
 53.12         172 
 53.14         218 
 53.16         240 
 53.18         224 
 53.2          211 
 53.22         243 
 53.24         252 
 53.26         236 
 53.28         253 
 53.3          242 
 53.32         278 
 53.34         234 
 53.36         245 
 53.38         274 
 53.4          221 
 53.42         214 
 53.44         217 
 53.46         211 
 53.48         192 
 53.5          195 
 53.52         187 
 53.54         178 
 53.56         162 
 53.58         151 
 53.6          136 
 53.62         121 
 53.64         137 
 53.66         124 
 53.68         133 
 53.7          121 
 53.72         115 
 53.74         117 
 53.76         112 
 53.78         105 
 53.8          80 
 53.82         114 
 53.84         96 
 53.86         109 
 53.88         107 
 53.9          117 
 53.92         111 
 53.94         105 
 53.96         89 
 53.98         92 
 54            115 
 54.02         91 
 54.04         77 
 54.06         90 
 54.08         117 
 54.1          95 
 54.12         95 
 54.14         85 
 54.16         100 
 54.18         79 
 54.2          102 
 54.22         105 
 54.24         93 
 54.26         93 
 54.28         99 
 54.3          101 
 54.32         74 
 54.34         82 
 54.36         85 
 54.38         81 
 54.4          105 
 54.42         86 
 54.44         84 
 54.46         88 
 54.48         88 
 54.5          78 
 54.52         93 
 54.54         78 
 54.56         101 
 54.58         91 
 54.6          98 
 54.62         79 
 54.64         98 
 54.66         87 
 54.68         84 
 54.7          90 
 54.72         79 
 54.74         76 
 54.76         78 
 54.78         78 
 54.8          107 
 54.82         87 
 54.84         80 
 54.86         82 
 54.88         83 
 54.9          87 
 54.92         96 
 54.94         96 
 54.96         78 
 54.98         84 
 55            86 
 55.02         78 
 55.04         79 
 55.06         101 
 55.08         82 
 55.1          87 
 55.12         112 
 55.14         97 
 55.16         111 
 55.18         100 
 55.2          104 
 55.22         112 
 55.24         92 
 55.26         104 
 55.28         103 
 55.3          109 
 55.32         125 
 55.34         124 
 55.36         132 
 55.38         122 
 55.4          128 
 55.42         130 
 55.44         152 
 55.46         133 
 55.48         164 
 55.5          181 
 55.52         195 
 55.54         239 
 55.56         276 
 55.58         357 
 55.6          411 
 55.62         440 
 55.64         559 
 55.66         619 
 55.68         666 
 55.7          724 
 55.72         683 
 55.74         739 
 55.76         735 
 55.78         776 
 55.8          792 
 55.82         887 
 55.84         877 
 55.86         1006 
 55.88         999 
 55.9          1135 
 55.92         1190 
 55.94         1255 
 55.96         1330 
 55.98         1385 
 56            1366 
 56.02         1468 
 56.04         1447 
 56.06         1387 
 56.08         1293 
 56.1          1264 
 56.12         1160 
 56.14         1079 
 56.16         1011 
 56.18         907 
 56.2          827 
 56.22         664 
 56.24         573 
 56.26         522 
 56.28         476 
 56.3          373 
 56.32         328 
 56.34         242 
 56.36         240 
 56.38         191 
 56.4          195 
 56.42         175 
 56.44         155 
 56.46         151 
 56.48         139 
 56.5          142 
 56.52         142 
 56.54         132 
 56.56         148 
 56.58         122 
 56.6          119 
 56.62         128 
 56.64         104 
 56.66         117 
 56.68         103 
 56.7          101 
 56.72         104 
 56.74         98 
 56.76         102 
 56.78         89 
 56.8          100 
 56.82         97 
 56.84         102 
 56.86         94 
 56.88         99 
 56.9          88 
 56.92         85 
 56.94         84 
 56.96         96 
 56.98         93 
 57            80 
 57.02         82 
 57.04         81 
 57.06         78 
 57.08         92 
 57.1          72 
 57.12         72 
 57.14         76 
 57.16         82 
 57.18         69 
 57.2          72 
 57.22         72 
 57.24         64 
 57.26         81 
 57.28         72 
 57.3          75 
 57.32         75 
 57.34         67 
 57.36         65 
 57.38         72 
 57.4          56 
 57.42         56 
 57.44         65 
 57.46         77 
 57.48         59 
 57.5          75 
 57.52         80 
 57.54         72 
 57.56         82 
 57.58         74 
 57.6          77 
 57.62         74 
 57.64         72 
 57.66         73 
 57.68         106 
 57.7          89 
 57.72         117 
 57.74         96 
 57.76         101 
 57.78         109 
 57.8          113 
 57.82         140 
 57.84         137 
 57.86         147 
 57.88         172 
 57.9          188 
 57.92         198 
 57.94         167 
 57.96         215 
 57.98         212 
 58            248 
 58.02         276 
 58.04         275 
 58.06         317 
 58.08         317 
 58.1          360 
 58.12         326 
 58.14         384 
 58.16         365 
 58.18         395 
 58.2          402 
 58.22         407 
 58.24         403 
 58.26         381 
 58.28         362 
 58.3          379 
 58.32         399 
 58.34         414 
 58.36         428 
 58.38         455 
 58.4          496 
 58.42         558 
 58.44         685 
 58.46         735 
 58.48         812 
 58.5          929 
 58.52         1032 
 58.54         1178 
 58.56         1299 
 58.58         1311 
 58.6          1372 
 58.62         1377 
 58.64         1383 
 58.66         1417 
 58.68         1402 
 58.7          1564 
 58.72         1610 
 58.74         1719 
 58.76         1793 
 58.78         1887 
 58.8          2026 
 58.82         2091 
 58.84         2268 
 58.86         2254 
 58.88         2417 
 58.9          2371 
 58.92         2388 
 58.94         2411 
 58.96         2348 
 58.98         2400 
 59            2187 
 59.02         2029 
 59.04         1875 
 59.06         1695 
 59.08         1563 
 59.1          1419 
 59.12         1274 
 59.14         1202 
 59.16         956 
 59.18         823 
 59.2          721 
 59.22         650 
 59.24         545 
 59.26         434 
 59.28         361 
 59.3          319 
 59.32         295 
 59.34         264 
 59.36         253 
 59.38         199 
 59.4          183 
 59.42         154 
 59.44         169 
 59.46         144 
 59.48         150 
 59.5          138 
 59.52         128 
 59.54         124 
 59.56         116 
 59.58         106 
 59.6          104 
 59.62         105 
 59.64         108 
 59.66         112 
 59.68         97 
 59.7          105 
 59.72         93 
 59.74         101 
 59.76         107 
 59.78         94 
 59.8          99 
 59.82         92 
 59.84         99 
 59.86         126 
 59.88         102 
 59.9          101 
 59.92         107 
 59.94         112 
 59.96         107 
 59.98         116 
 60            117 
 60.02         99 
 60.04         95 
 60.06         135 
 60.08         125 
 60.1          148 
 60.12         156 
 60.14         167 
 60.16         171 
 60.18         186 
 60.2          197 
 60.22         213 
 60.24         236 
 60.26         204 
 60.28         229 
 60.3          227 
 60.32         230 
 60.34         242 
 60.36         228 
 60.38         253 
 60.4          321 
 60.42         338 
 60.44         361 
 60.46         425 
 60.48         433 
 60.5          437 
 60.52         556 
 60.54         500 
 60.56         538 
 60.58         616 
 60.6          562 
 60.62         615 
 60.64         589 
 60.66         578 
 60.68         504 
 60.7          511 
 60.72         468 
 60.74         445 
 60.76         433 
 60.78         360 
 60.8          344 
 60.82         322 
 60.84         286 
 60.86         247 
 60.88         237 
 60.9          181 
 60.92         166 
 60.94         168 
 60.96         139 
 60.98         123 
 61            119 
 61.02         112 
 61.04         109 
 61.06         107 
 61.08         113 
 61.1          112 
 61.12         89 
 61.14         90 
 61.16         99 
 61.18         90 
 61.2          89 
 61.22         94 
 61.24         122 
 61.26         94 
 61.28         104 
 61.3          85 
 61.32         101 
 61.34         83 
 61.36         90 
 61.38         105 
 61.4          85 
 61.42         108 
 61.44         114 
 61.46         101 
 61.48         118 
 61.5          94 
 61.52         85 
 61.54         111 
 61.56         94 
 61.58         93 
 61.6          107 
 61.62         85 
 61.64         84 
 61.66         100 
 61.68         100 
 61.7          93 
 61.72         78 
 61.74         85 
 61.76         103 
 61.78         97 
 61.8          63 
 61.82         78 
 61.84         66 
 61.86         82 
 61.88         74 
 61.9          91 
 61.92         78 
 61.94         81 
 61.96         82 
 61.98         76 
 62            91 
 62.02         80 
 62.04         67 
 62.06         85 
 62.08         92 
 62.1          82 
 62.12         76 
 62.14         73 
 62.16         62 
 62.18         90 
 62.2          81 
 62.22         82 
 62.24         76 
 62.26         81 
 62.28         80 
 62.3          90 
 62.32         78 
 62.34         93 
 62.36         86 
 62.38         71 
 62.4          93 
 62.42         85 
 62.44         96 
 62.46         83 
 62.48         104 
 62.5          71 
 62.52         102 
 62.54         80 
 62.56         83 
 62.58         91 
 62.6          94 
 62.62         96 
 62.64         105 
 62.66         92 
 62.68         109 
 62.7          95 
 62.72         103 
 62.74         112 
 62.76         116 
 62.78         113 
 62.8          109 
 62.82         122 
 62.84         117 
 62.86         136 
 62.88         129 
 62.9          133 
 62.92         151 
 62.94         179 
 62.96         212 
 62.98         240 
 63            272 
 63.02         315 
 63.04         417 
 63.06         425 
 63.08         509 
 63.1          475 
 63.12         503 
 63.14         587 
 63.16         544 
 63.18         515 
 63.2          563 
 63.22         500 
 63.24         488 
 63.26         483 
 63.28         411 
 63.3          419 
 63.32         380 
 63.34         387 
 63.36         311 
 63.38         283 
 63.4          268 
 63.42         235 
 63.44         235 
 63.46         160 
 63.48         178 
 63.5          125 
 63.52         137 
 63.54         116 
 63.56         126 
 63.58         131 
 63.6          108 
 63.62         108 
 63.64         107 
 63.66         116 
 63.68         104 
 63.7          94 
 63.72         87 
 63.74         113 
 63.76         92 
 63.78         106 
 63.8          97 
 63.82         100 
 63.84         95 
 63.86         105 
 63.88         80 
 63.9          95 
 63.92         104 
 63.94         93 
 63.96         93 
 63.98         88 
 64            98 
 64.02         99 
 64.04         89 
 64.06         88 
 64.08         87 
 64.1          102 
 64.12         84 
 64.14         105 
 64.16         94 
 64.18         93 
 64.2          107 
 64.22         135 
 64.24         109 
 64.26         108 
 64.28         139 
 64.3          137 
 64.32         139 
 64.34         140 
 64.36         151 
 64.38         178 
 64.4          184 
 64.42         179 
 64.44         200 
 64.46         220 
 64.48         237 
 64.5          256 
 64.52         249 
 64.54         246 
 64.56         254 
 64.58         309 
 64.6          290 
 64.62         265 
 64.64         302 
 64.66         350 
 64.68         320 
 64.7          342 
 64.72         319 
 64.74         377 
 64.76         437 
 64.78         419 
 64.8          432 
 64.82         428 
 64.84         462 
 64.86         462 
 64.88         452 
 64.9          420 
 64.92         485 
 64.94         485 
 64.96         536 
 64.98         551 
 65            640 
 65.02         663 
 65.04         704 
 65.06         768 
 65.08         853 
 65.1          931 
 65.12         938 
 65.14         984 
 65.16         994 
 65.18         987 
 65.2          983 
 65.22         1022 
 65.24         1010 
 65.26         946 
 65.28         946 
 65.3          914 
 65.32         915 
 65.34         880 
 65.36         925 
 65.38         992 
 65.4          982 
 65.42         940 
 65.44         1100 
 65.46         987 
 65.48         970 
 65.5          931 
 65.52         980 
 65.54         931 
 65.56         927 
 65.58         824 
 65.6          827 
 65.62         776 
 65.64         729 
 65.66         679 
 65.68         651 
 65.7          622 
 65.72         542 
 65.74         464 
 65.76         391 
 65.78         398 
 65.8          340 
 65.82         333 
 65.84         334 
 65.86         266 
 65.88         233 
 65.9          205 
 65.92         201 
 65.94         189 
 65.96         182 
 65.98         167 
 66            161 
 66.02         144 
 66.04         148 
 66.06         155 
 66.08         150 
 66.1          156 
 66.12         126 
 66.14         155 
 66.16         131 
 66.18         133 
 66.2          130 
 66.22         134 
 66.24         134 
 66.26         119 
 66.28         107 
 66.3          105 
 66.32         129 
 66.34         110 
 66.36         119 
 66.38         111 
 66.4          98 
 66.42         111 
 66.44         123 
 66.46         100 
 66.48         104 
 66.5          110 
 66.52         89 
 66.54         115 
 66.56         116 
 66.58         117 
 66.6          98 
 66.62         101 
 66.64         109 
 66.66         92 
 66.68         106 
 66.7          120 
 66.72         101 
 66.74         104 
 66.76         102 
 66.78         108 
 66.8          107 
 66.82         104 
 66.84         90 
 66.86         97 
 66.88         115 
 66.9          87 
 66.92         105 
 66.94         114 
 66.96         103 
 66.98         110 
 67            107 
 67.02         98 
 67.04         111 
 67.06         99 
 67.08         125 
 67.1          100 
 67.12         97 
 67.14         115 
 67.16         117 
 67.18         115 
 67.2          120 
 67.22         111 
 67.24         117 
 67.26         123 
 67.28         120 
 67.3          154 
 67.32         151 
 67.34         143 
 67.36         175 
 67.38         195 
 67.4          217 
 67.42         203 
 67.44         260 
 67.46         254 
 67.48         316 
 67.5          310 
 67.52         333 
 67.54         372 
 67.56         360 
 67.58         384 
 67.6          454 
 67.62         490 
 67.64         528 
 67.66         553 
 67.68         603 
 67.7          646 
 67.72         684 
 67.74         690 
 67.76         767 
 67.78         702 
 67.8          759 
 67.82         740 
 67.84         704 
 67.86         755 
 67.88         686 
 67.9          698 
 67.92         728 
 67.94         643 
 67.96         594 
 67.98         610 
 68            520 
 68.02         484 
 68.04         466 
 68.06         427 
 68.08         388 
 68.1          332 
 68.12         309 
 68.14         283 
 68.16         277 
 68.18         242 
 68.2          228 
 68.22         218 
 68.24         194 
 68.26         204 
 68.28         165 
 68.3          151 
 68.32         162 
 68.34         147 
 68.36         130 
 68.38         136 
 68.4          144 
 68.42         142 
 68.44         148 
 68.46         154 
 68.48         176 
 68.5          166 
 68.52         164 
 68.54         180 
 68.56         195 
 68.58         197 
 68.6          237 
 68.62         228 
 68.64         271 
 68.66         279 
 68.68         291 
 68.7          290 
 68.72         329 
 68.74         418 
 68.76         404 
 68.78         399 
 68.8          440 
 68.82         443 
 68.84         428 
 68.86         479 
 68.88         532 
 68.9          537 
 68.92         525 
 68.94         559 
 68.96         542 
 68.98         560 
 69            533 
 69.02         606 
 69.04         530 
 69.06         519 
 69.08         506 
 69.1          462 
 69.12         454 
 69.14         451 
 69.16         474 
 69.18         446 
 69.2          485 
 69.22         429 
 69.24         415 
 69.26         390 
 69.28         441 
 69.3          419 
 69.32         466 
 69.34         411 
 69.36         439 
 69.38         498 
 69.4          498 
 69.42         552 
 69.44         563 
 69.46         604 
 69.48         566 
 69.5          592 
 69.52         542 
 69.54         501 
 69.56         515 
 69.58         483 
 69.6          396 
 69.62         473 
 69.64         468 
 69.66         375 
 69.68         370 
 69.7          346 
 69.72         296 
 69.74         319 
 69.76         225 
 69.78         236 
 69.8          243 
 69.82         229 
 69.84         172 
 69.86         181 
 69.88         162 
 69.9          132 
 69.92         143 
 69.94         148 
 69.96         146 
 69.98         137 
 70            122 
 70.02         106 
 70.04         131 
 70.06         106 
 70.08         114 
 70.1          119 
 70.12         111 
 70.14         120 
 70.16         99 
 70.18         107 
 70.2          108 
 70.22         102 
 70.24         103 
 70.26         95 
 70.28         104 
 70.3          109 
 70.32         120 
 70.34         104 
 70.36         94 
 70.38         107 
 70.4          93 
 70.42         95 
 70.44         71 
 70.46         88 
 70.48         104 
 70.5          76 
 70.52         104 
 70.54         95 
 70.56         97 
 70.58         82 
 70.6          74 
 70.62         65 
 70.64         91 
 70.66         71 
 70.68         83 
 70.7          75 
 70.72         88 
 70.74         71 
 70.76         90 
 70.78         86 
 70.8          76 
 70.82         98 
 70.84         74 
 70.86         84 
 70.88         90 
 70.9          81 
 70.92         88 
 70.94         87 
 70.96         84 
 70.98         87 
 71            92 
 71.02         106 
 71.04         118 
 71.06         96 
 71.08         107 
 71.1          117 
 71.12         119 
 71.14         141 
 71.16         167 
 71.18         157 
 71.2          176 
 71.22         175 
 71.24         240 
 71.26         226 
 71.28         287 
 71.3          283 
 71.32         285 
 71.34         308 
 71.36         301 
 71.38         300 
 71.4          310 
 71.42         295 
 71.44         320 
 71.46         282 
 71.48         295 
 71.5          275 
 71.52         264 
 71.54         269 
 71.56         229 
 71.58         259 
 71.6          228 
 71.62         231 
 71.64         222 
 71.66         211 
 71.68         213 
 71.7          194 
 71.72         168 
 71.74         178 
 71.76         156 
 71.78         202 
 71.8          199 
 71.82         210 
 71.84         226 
 71.86         294 
 71.88         278 
 71.9          298 
 71.92         347 
 71.94         342 
 71.96         352 
 71.98         400 
 72            403 
 72.02         409 
 72.04         409 
 72.06         424 
 72.08         460 
 72.1          454 
 72.12         419 
 72.14         383 
 72.16         382 
 72.18         357 
 72.2          377 
 72.22         404 
 72.24         375 
 72.26         387 
 72.28         381 
 72.3          359 
 72.32         360 
 72.34         369 
 72.36         340 
 72.38         379 
 72.4          347 
 72.42         322 
 72.44         381 
 72.46         353 
 72.48         375 
 72.5          346 
 72.52         324 
 72.54         354 
 72.56         319 
 72.58         326 
 72.6          349 
 72.62         326 
 72.64         353 
 72.66         326 
 72.68         315 
 72.7          311 
 72.72         294 
 72.74         301 
 72.76         288 
 72.78         290 
 72.8          281 
 72.82         259 
 72.84         281 
 72.86         304 
 72.88         248 
 72.9          310 
 72.92         301 
 72.94         328 
 72.96         359 
 72.98         321 
 73            335 
 73.02         406 
 73.04         378 
 73.06         395 
 73.08         399 
 73.1          472 
 73.12         481 
 73.14         525 
 73.16         530 
 73.18         587 
 73.2          530 
 73.22         637 
 73.24         584 
 73.26         569 
 73.28         626 
 73.3          576 
 73.32         593 
 73.34         578 
 73.36         641 
 73.38         553 
 73.4          558 
 73.42         568 
 73.44         492 
 73.46         527 
 73.48         537 
 73.5          551 
 73.52         507 
 73.54         545 
 73.56         562 
 73.58         578 
 73.6          571 
 73.62         552 
 73.64         603 
 73.66         553 
 73.68         596 
 73.7          526 
 73.72         504 
 73.74         475 
 73.76         496 
 73.78         464 
 73.8          507 
 73.82         420 
 73.84         442 
 73.86         391 
 73.88         366 
 73.9          365 
 73.92         355 
 73.93999      315 
 73.96         266 
 73.98         280 
 74            231 
 74.02         240 
 74.04         227 
 74.06         196 
 74.08         188 
 74.1          187 
 74.12         178 
 74.14         161 
 74.16         125 
 74.18         132 
 74.2          135 
 74.22         117 
 74.24         116 
 74.26         114 
 74.28         94 
 74.3          116 
 74.32         102 
 74.34         116 
 74.36         118 
 74.38         91 
 74.4          100 
 74.42         96 
 74.43999      95 
 74.46         85 
 74.48         73 
 74.5          103 
 74.52         89 
 74.54         78 
 74.56         105 
 74.58         98 
 74.6          84 
 74.62         88 
 74.64         100 
 74.66         99 
 74.68         94 
 74.7          81 
 74.72         76 
 74.74         80 
 74.76         88 
 74.78         92 
 74.8          75 
 74.82         71 
 74.84         70 
 74.86         94 
 74.88         85 
 74.9          84 
 74.92         93 
 74.93999      85 
 74.96         77 
 74.98         83 
 75            88 
