F900k1050-2St_P5  Original Data
 3151 
 12            389 
 12.02         372 
 12.04         399 
 12.06         360 
 12.08         368 
 12.1          409 
 12.12         360 
 12.14         374 
 12.16         350 
 12.18         425 
 12.2          348 
 12.22         408 
 12.24         369 
 12.26         396 
 12.28         376 
 12.3          360 
 12.32         349 
 12.34         369 
 12.36         380 
 12.38         385 
 12.4          411 
 12.42         352 
 12.44         448 
 12.46         385 
 12.48         394 
 12.5          414 
 12.52         386 
 12.54         353 
 12.56         396 
 12.58         371 
 12.6          416 
 12.62         365 
 12.64         409 
 12.66         378 
 12.68         401 
 12.7          401 
 12.72         381 
 12.74         401 
 12.76         359 
 12.78         382 
 12.8          360 
 12.82         385 
 12.84         359 
 12.86         409 
 12.88         342 
 12.9          404 
 12.92         351 
 12.94         382 
 12.96         333 
 12.98         368 
 13            366 
 13.02         374 
 13.04         370 
 13.06         377 
 13.08         385 
 13.1          366 
 13.12         427 
 13.14         344 
 13.16         378 
 13.18         373 
 13.2          408 
 13.22         340 
 13.24         365 
 13.26         353 
 13.28         360 
 13.3          352 
 13.32         371 
 13.34         371 
 13.36         336 
 13.38         395 
 13.4          349 
 13.42         378 
 13.44         352 
 13.46         373 
 13.48         311 
 13.5          372 
 13.52         345 
 13.54         364 
 13.56         369 
 13.58         376 
 13.6          327 
 13.62         350 
 13.64         339 
 13.66         371 
 13.68         365 
 13.7          352 
 13.72         360 
 13.74         346 
 13.76         335 
 13.78         307 
 13.8          318 
 13.82         361 
 13.84         361 
 13.86         303 
 13.88         338 
 13.9          352 
 13.92         338 
 13.94         307 
 13.96         281 
 13.98         314 
 14            316 
 14.02         305 
 14.04         305 
 14.06         334 
 14.08         278 
 14.1          277 
 14.12         259 
 14.14         326 
 14.16         298 
 14.18         306 
 14.2          283 
 14.22         295 
 14.24         267 
 14.26         319 
 14.28         287 
 14.3          296 
 14.32         295 
 14.34         298 
 14.36         307 
 14.38         269 
 14.4          274 
 14.42         274 
 14.44         281 
 14.46         306 
 14.48         285 
 14.5          296 
 14.52         296 
 14.54         291 
 14.56         334 
 14.58         272 
 14.6          287 
 14.62         336 
 14.64         322 
 14.66         358 
 14.68         341 
 14.7          393 
 14.72         376 
 14.74         398 
 14.76         395 
 14.78         472 
 14.8          508 
 14.82         510 
 14.84         581 
 14.86         671 
 14.88         692 
 14.9          804 
 14.92         897 
 14.94         1041 
 14.96         1235 
 14.98         1347 
 15            1530 
 15.02         1661 
 15.04         1871 
 15.06         1892 
 15.08         2051 
 15.1          1937 
 15.12         1867 
 15.14         1759 
 15.16         1419 
 15.18         1186 
 15.2          931 
 15.22         725 
 15.24         515 
 15.26         427 
 15.28         328 
 15.3          349 
 15.32         288 
 15.34         249 
 15.36         268 
 15.38         258 
 15.4          245 
 15.42         192 
 15.44         214 
 15.46         277 
 15.48         226 
 15.5          227 
 15.52         221 
 15.54         246 
 15.56         202 
 15.58         246 
 15.6          218 
 15.62         222 
 15.64         214 
 15.66         228 
 15.68         260 
 15.7          228 
 15.72         202 
 15.74         231 
 15.76         250 
 15.78         208 
 15.8          208 
 15.82         241 
 15.84         209 
 15.86         224 
 15.88         199 
 15.9          206 
 15.92         230 
 15.94         225 
 15.96         212 
 15.98         229 
 16            204 
 16.02         247 
 16.04         189 
 16.06         184 
 16.08         215 
 16.1          216 
 16.12         188 
 16.14         184 
 16.16         219 
 16.18         208 
 16.2          200 
 16.22         201 
 16.24         214 
 16.26         218 
 16.28         198 
 16.3          191 
 16.32         206 
 16.34         197 
 16.36         198 
 16.38         193 
 16.4          189 
 16.42         201 
 16.44         189 
 16.46         188 
 16.48         218 
 16.5          197 
 16.52         207 
 16.54         213 
 16.56         198 
 16.58         210 
 16.6          160 
 16.62         182 
 16.64         181 
 16.66         203 
 16.68         182 
 16.7          168 
 16.72         188 
 16.74         201 
 16.76         187 
 16.78         191 
 16.8          190 
 16.82         199 
 16.84         191 
 16.86         197 
 16.88         174 
 16.9          190 
 16.92         171 
 16.94         184 
 16.96         185 
 16.98         174 
 17            164 
 17.02         190 
 17.04         169 
 17.06         169 
 17.08         166 
 17.1          153 
 17.12         181 
 17.14         208 
 17.16         203 
 17.18         175 
 17.2          198 
 17.22         159 
 17.24         192 
 17.26         185 
 17.28         195 
 17.3          196 
 17.32         177 
 17.34         210 
 17.36         183 
 17.38         219 
 17.4          229 
 17.42         204 
 17.44         212 
 17.46         208 
 17.48         180 
 17.5          189 
 17.52         155 
 17.54         159 
 17.56         193 
 17.58         171 
 17.6          166 
 17.62         173 
 17.64         199 
 17.66         154 
 17.68         192 
 17.7          159 
 17.72         162 
 17.74         180 
 17.76         142 
 17.78         166 
 17.8          171 
 17.82         169 
 17.84         173 
 17.86         159 
 17.88         174 
 17.9          178 
 17.92         156 
 17.94         179 
 17.96         206 
 17.98         190 
 18            165 
 18.02         149 
 18.04         146 
 18.06         175 
 18.08         168 
 18.1          169 
 18.12         153 
 18.14         181 
 18.16         158 
 18.18         173 
 18.2          194 
 18.22         179 
 18.24         197 
 18.26         185 
 18.28         216 
 18.3          185 
 18.32         176 
 18.34         152 
 18.36         175 
 18.38         188 
 18.4          158 
 18.42         168 
 18.44         162 
 18.46         132 
 18.48         161 
 18.5          157 
 18.52         132 
 18.54         154 
 18.56         137 
 18.58         150 
 18.6          135 
 18.62         154 
 18.64         170 
 18.66         148 
 18.68         136 
 18.7          158 
 18.72         160 
 18.74         136 
 18.76         186 
 18.78         144 
 18.8          137 
 18.82         150 
 18.84         147 
 18.86         141 
 18.88         140 
 18.9          175 
 18.92         171 
 18.94         141 
 18.96         182 
 18.98         154 
 19            146 
 19.02         154 
 19.04         128 
 19.06         169 
 19.08         159 
 19.1          157 
 19.12         154 
 19.14         154 
 19.16         154 
 19.18         147 
 19.2          136 
 19.22         139 
 19.24         162 
 19.26         147 
 19.28         141 
 19.3          159 
 19.32         135 
 19.34         153 
 19.36         140 
 19.38         159 
 19.4          148 
 19.42         154 
 19.44         131 
 19.46         153 
 19.48         140 
 19.5          135 
 19.52         156 
 19.54         140 
 19.56         156 
 19.58         134 
 19.6          152 
 19.62         146 
 19.64         154 
 19.66         146 
 19.68         137 
 19.7          160 
 19.72         151 
 19.74         150 
 19.76         147 
 19.78         155 
 19.8          178 
 19.82         137 
 19.84         149 
 19.86         124 
 19.88         150 
 19.9          166 
 19.92         153 
 19.94         136 
 19.96         135 
 19.98         144 
 20            165 
 20.02         151 
 20.04         150 
 20.06         120 
 20.08         145 
 20.1          132 
 20.12         156 
 20.14         140 
 20.16         152 
 20.18         127 
 20.2          164 
 20.22         165 
 20.24         165 
 20.26         154 
 20.28         176 
 20.3          176 
 20.32         163 
 20.34         177 
 20.36         190 
 20.38         181 
 20.4          175 
 20.42         203 
 20.44         205 
 20.46         191 
 20.48         210 
 20.5          208 
 20.52         202 
 20.54         228 
 20.56         226 
 20.58         231 
 20.6          205 
 20.62         222 
 20.64         201 
 20.66         202 
 20.68         217 
 20.7          230 
 20.72         231 
 20.74         247 
 20.76         253 
 20.78         288 
 20.8          306 
 20.82         353 
 20.84         395 
 20.86         385 
 20.88         446 
 20.9          457 
 20.92         579 
 20.94         620 
 20.96         708 
 20.98         848 
 21            1036 
 21.02         1187 
 21.04         1451 
 21.06         1664 
 21.08         2030 
 21.1          2344 
 21.12         2787 
 21.14         3451 
 21.16         4109 
 21.18         4861 
 21.2          5445 
 21.22         6030 
 21.24         6642 
 21.26         7088 
 21.28         7133 
 21.3          7235 
 21.32         6602 
 21.34         6309 
 21.36         5880 
 21.38         5314 
 21.4          5005 
 21.42         4866 
 21.44         4686 
 21.46         4716 
 21.48         4874 
 21.5          5080 
 21.52         5021 
 21.54         4845 
 21.56         4381 
 21.58         3999 
 21.6          3444 
 21.62         2772 
 21.64         2052 
 21.66         1579 
 21.68         1112 
 21.7          821 
 21.72         661 
 21.74         540 
 21.76         535 
 21.78         450 
 21.8          440 
 21.82         379 
 21.84         381 
 21.86         349 
 21.88         315 
 21.9          302 
 21.92         256 
 21.94         229 
 21.96         193 
 21.98         182 
 22            202 
 22.02         181 
 22.04         176 
 22.06         173 
 22.08         167 
 22.1          151 
 22.12         145 
 22.14         153 
 22.16         170 
 22.18         171 
 22.2          127 
 22.22         142 
 22.24         131 
 22.26         140 
 22.28         144 
 22.3          138 
 22.32         145 
 22.34         134 
 22.36         127 
 22.38         141 
 22.4          159 
 22.42         128 
 22.44         145 
 22.46         142 
 22.48         120 
 22.5          116 
 22.52         141 
 22.54         85 
 22.56         129 
 22.58         133 
 22.6          155 
 22.62         128 
 22.64         140 
 22.66         111 
 22.68         104 
 22.7          145 
 22.72         127 
 22.74         154 
 22.76         123 
 22.78         113 
 22.8          116 
 22.82         125 
 22.84         117 
 22.86         150 
 22.88         120 
 22.9          140 
 22.92         108 
 22.94         143 
 22.96         132 
 22.98         154 
 23            142 
 23.02         128 
 23.04         160 
 23.06         138 
 23.08         140 
 23.1          105 
 23.12         135 
 23.14         143 
 23.16         141 
 23.18         139 
 23.2          157 
 23.22         156 
 23.24         170 
 23.26         150 
 23.28         145 
 23.3          179 
 23.32         152 
 23.34         189 
 23.36         157 
 23.38         163 
 23.4          126 
 23.42         163 
 23.44         119 
 23.46         149 
 23.48         133 
 23.5          147 
 23.52         133 
 23.54         122 
 23.56         135 
 23.58         124 
 23.6          131 
 23.62         122 
 23.64         122 
 23.66         131 
 23.68         120 
 23.7          137 
 23.72         160 
 23.74         135 
 23.76         133 
 23.78         134 
 23.8          121 
 23.82         117 
 23.84         130 
 23.86         121 
 23.88         116 
 23.9          109 
 23.92         112 
 23.94         141 
 23.96         130 
 23.98         123 
 24            113 
 24.02         161 
 24.04         133 
 24.06         133 
 24.08         103 
 24.1          137 
 24.12         122 
 24.14         121 
 24.16         139 
 24.18         148 
 24.2          155 
 24.22         140 
 24.24         130 
 24.26         125 
 24.28         138 
 24.3          123 
 24.32         131 
 24.34         120 
 24.36         108 
 24.38         120 
 24.4          114 
 24.42         127 
 24.44         142 
 24.46         123 
 24.48         127 
 24.5          150 
 24.52         130 
 24.54         141 
 24.56         136 
 24.58         154 
 24.6          149 
 24.62         150 
 24.64         157 
 24.66         234 
 24.68         207 
 24.7          248 
 24.72         272 
 24.74         269 
 24.76         325 
 24.78         385 
 24.8          385 
 24.82         503 
 24.84         575 
 24.86         656 
 24.88         823 
 24.9          980 
 24.92         1153 
 24.94         1468 
 24.96         1741 
 24.98         2166 
 25            2610 
 25.02         3372 
 25.04         4087 
 25.06         5247 
 25.08         6213 
 25.1          7493 
 25.12         8108 
 25.14         9062 
 25.16         9592 
 25.18         9650 
 25.2          9394 
 25.22         8532 
 25.24         7557 
 25.26         6131 
 25.28         4941 
 25.3          3591 
 25.32         2637 
 25.34         1741 
 25.36         1242 
 25.38         863 
 25.4          662 
 25.42         465 
 25.44         419 
 25.46         321 
 25.48         332 
 25.5          233 
 25.52         248 
 25.54         240 
 25.56         223 
 25.58         258 
 25.6          217 
 25.62         211 
 25.64         226 
 25.66         225 
 25.68         253 
 25.7          258 
 25.72         258 
 25.74         284 
 25.76         280 
 25.78         314 
 25.8          388 
 25.82         453 
 25.84         485 
 25.86         533 
 25.88         630 
 25.9          671 
 25.92         750 
 25.94         688 
 25.96         716 
 25.98         655 
 26            711 
 26.02         638 
 26.04         559 
 26.06         468 
 26.08         417 
 26.1          322 
 26.12         306 
 26.14         284 
 26.16         204 
 26.18         202 
 26.2          194 
 26.22         192 
 26.24         166 
 26.26         190 
 26.28         192 
 26.3          198 
 26.32         187 
 26.34         195 
 26.36         215 
 26.38         224 
 26.4          211 
 26.42         201 
 26.44         184 
 26.46         193 
 26.48         167 
 26.5          142 
 26.52         152 
 26.54         162 
 26.56         151 
 26.58         124 
 26.6          121 
 26.62         129 
 26.64         98 
 26.66         105 
 26.68         102 
 26.7          81 
 26.72         121 
 26.74         100 
 26.76         107 
 26.78         103 
 26.8          90 
 26.82         109 
 26.84         99 
 26.86         105 
 26.88         115 
 26.9          101 
 26.92         110 
 26.94         91 
 26.96         105 
 26.98         109 
 27            110 
 27.02         105 
 27.04         112 
 27.06         122 
 27.08         119 
 27.1          110 
 27.12         97 
 27.14         111 
 27.16         96 
 27.18         99 
 27.2          118 
 27.22         103 
 27.24         123 
 27.26         94 
 27.28         112 
 27.3          104 
 27.32         79 
 27.34         98 
 27.36         98 
 27.38         102 
 27.4          114 
 27.42         90 
 27.44         113 
 27.46         128 
 27.48         112 
 27.5          100 
 27.52         107 
 27.54         115 
 27.56         98 
 27.58         102 
 27.6          102 
 27.62         87 
 27.64         96 
 27.66         117 
 27.68         109 
 27.7          121 
 27.72         110 
 27.74         102 
 27.76         100 
 27.78         99 
 27.8          95 
 27.82         102 
 27.84         97 
 27.86         103 
 27.88         107 
 27.9          115 
 27.92         110 
 27.94         131 
 27.96         103 
 27.98         101 
 28            90 
 28.02         110 
 28.04         114 
 28.06         113 
 28.08         102 
 28.1          107 
 28.12         99 
 28.14         109 
 28.16         95 
 28.18         122 
 28.2          116 
 28.22         105 
 28.24         110 
 28.26         107 
 28.28         100 
 28.3          109 
 28.32         115 
 28.34         90 
 28.36         113 
 28.38         98 
 28.4          95 
 28.42         115 
 28.44         123 
 28.46         90 
 28.48         104 
 28.5          96 
 28.52         91 
 28.54         100 
 28.56         88 
 28.58         107 
 28.6          112 
 28.62         102 
 28.64         115 
 28.66         104 
 28.68         112 
 28.7          122 
 28.72         131 
 28.74         97 
 28.76         108 
 28.78         131 
 28.8          84 
 28.82         117 
 28.84         129 
 28.86         108 
 28.88         106 
 28.9          124 
 28.92         107 
 28.94         140 
 28.96         129 
 28.98         141 
 29            113 
 29.02         111 
 29.04         116 
 29.06         123 
 29.08         132 
 29.1          107 
 29.12         112 
 29.14         116 
 29.16         129 
 29.18         91 
 29.2          110 
 29.22         106 
 29.24         128 
 29.26         94 
 29.28         115 
 29.3          120 
 29.32         110 
 29.34         117 
 29.36         112 
 29.38         102 
 29.4          101 
 29.42         93 
 29.44         89 
 29.46         107 
 29.48         116 
 29.5          89 
 29.52         106 
 29.54         107 
 29.56         118 
 29.58         98 
 29.6          105 
 29.62         85 
 29.64         91 
 29.66         109 
 29.68         97 
 29.7          115 
 29.72         122 
 29.74         126 
 29.76         120 
 29.78         112 
 29.8          115 
 29.82         114 
 29.84         124 
 29.86         122 
 29.88         120 
 29.9          144 
 29.92         142 
 29.94         159 
 29.96         150 
 29.98         161 
 30            161 
 30.02         231 
 30.04         189 
 30.06         223 
 30.08         271 
 30.1          316 
 30.12         326 
 30.14         357 
 30.16         444 
 30.18         576 
 30.2          730 
 30.22         879 
 30.24         1170 
 30.26         1358 
 30.28         1709 
 30.3          2167 
 30.32         2714 
 30.34         3349 
 30.36         3884 
 30.38         4743 
 30.4          5286 
 30.42         5796 
 30.44         5754 
 30.46         6013 
 30.48         5730 
 30.5          5201 
 30.52         4584 
 30.54         3732 
 30.56         2826 
 30.58         2210 
 30.6          1592 
 30.62         1171 
 30.64         775 
 30.66         601 
 30.68         478 
 30.7          346 
 30.72         304 
 30.74         256 
 30.76         234 
 30.78         194 
 30.8          186 
 30.82         189 
 30.84         177 
 30.86         158 
 30.88         144 
 30.9          144 
 30.92         136 
 30.94         153 
 30.96         132 
 30.98         138 
 31            133 
 31.02         121 
 31.04         107 
 31.06         121 
 31.08         128 
 31.1          115 
 31.12         144 
 31.14         107 
 31.16         145 
 31.18         139 
 31.2          123 
 31.22         118 
 31.24         117 
 31.26         102 
 31.28         107 
 31.3          113 
 31.32         115 
 31.34         107 
 31.36         117 
 31.38         99 
 31.4          122 
 31.42         114 
 31.44         97 
 31.46         97 
 31.48         114 
 31.5          108 
 31.52         97 
 31.54         108 
 31.56         110 
 31.58         94 
 31.6          123 
 31.62         103 
 31.64         96 
 31.66         101 
 31.68         91 
 31.7          111 
 31.72         116 
 31.74         108 
 31.76         112 
 31.78         95 
 31.8          117 
 31.82         106 
 31.84         85 
 31.86         103 
 31.88         106 
 31.9          106 
 31.92         106 
 31.94         102 
 31.96         118 
 31.98         86 
 32            92 
 32.02         90 
 32.04         99 
 32.06         68 
 32.08         81 
 32.1          88 
 32.12         91 
 32.14         88 
 32.16         99 
 32.18         109 
 32.2          81 
 32.22         60 
 32.24         67 
 32.26         80 
 32.28         84 
 32.3          91 
 32.32         89 
 32.34         86 
 32.36         88 
 32.38         97 
 32.4          84 
 32.42         109 
 32.44         92 
 32.46         100 
 32.48         98 
 32.5          96 
 32.52         81 
 32.54         81 
 32.56         100 
 32.58         82 
 32.6          87 
 32.62         94 
 32.64         115 
 32.66         87 
 32.68         71 
 32.7          102 
 32.72         95 
 32.74         72 
 32.76         99 
 32.78         98 
 32.8          90 
 32.82         105 
 32.84         96 
 32.86         103 
 32.88         98 
 32.9          115 
 32.92         107 
 32.94         125 
 32.96         120 
 32.98         128 
 33            133 
 33.02         163 
 33.04         167 
 33.06         171 
 33.08         153 
 33.1          179 
 33.12         251 
 33.14         254 
 33.16         288 
 33.18         311 
 33.2          379 
 33.22         451 
 33.24         514 
 33.26         664 
 33.28         759 
 33.3          956 
 33.32         1112 
 33.34         1236 
 33.36         1465 
 33.38         1670 
 33.4          1775 
 33.42         1890 
 33.44         1928 
 33.46         1933 
 33.48         1866 
 33.5          1748 
 33.52         1456 
 33.54         1293 
 33.56         1086 
 33.58         947 
 33.6          733 
 33.62         676 
 33.64         559 
 33.66         522 
 33.68         483 
 33.7          529 
 33.72         639 
 33.74         633 
 33.76         829 
 33.78         1029 
 33.8          1301 
 33.82         1485 
 33.84         1860 
 33.86         2203 
 33.88         2811 
 33.9          3115 
 33.92         3536 
 33.94         3753 
 33.96         4104 
 33.98         4093 
 34            4131 
 34.02         3812 
 34.04         3390 
 34.06         3032 
 34.08         2486 
 34.1          2033 
 34.12         1658 
 34.14         1324 
 34.16         956 
 34.18         724 
 34.2          529 
 34.22         426 
 34.24         312 
 34.26         275 
 34.28         222 
 34.3          226 
 34.32         182 
 34.34         163 
 34.36         134 
 34.38         136 
 34.4          140 
 34.42         108 
 34.44         119 
 34.46         121 
 34.48         112 
 34.5          116 
 34.52         114 
 34.54         109 
 34.56         120 
 34.58         108 
 34.6          81 
 34.62         91 
 34.64         107 
 34.66         97 
 34.68         74 
 34.7          94 
 34.72         97 
 34.74         94 
 34.76         96 
 34.78         78 
 34.8          85 
 34.82         71 
 34.84         93 
 34.86         100 
 34.88         78 
 34.9          100 
 34.92         87 
 34.94         106 
 34.96         90 
 34.98         81 
 35            84 
 35.02         90 
 35.04         86 
 35.06         76 
 35.08         96 
 35.1          78 
 35.12         89 
 35.14         91 
 35.16         96 
 35.18         78 
 35.2          79 
 35.22         98 
 35.24         87 
 35.26         95 
 35.28         82 
 35.3          118 
 35.32         104 
 35.34         94 
 35.36         102 
 35.38         132 
 35.4          118 
 35.42         121 
 35.44         102 
 35.46         110 
 35.48         122 
 35.5          104 
 35.52         124 
 35.54         127 
 35.56         110 
 35.58         93 
 35.6          99 
 35.62         102 
 35.64         119 
 35.66         101 
 35.68         118 
 35.7          115 
 35.72         115 
 35.74         122 
 35.76         106 
 35.78         120 
 35.8          135 
 35.82         128 
 35.84         130 
 35.86         146 
 35.88         142 
 35.9          147 
 35.92         136 
 35.94         144 
 35.96         118 
 35.98         137 
 36            130 
 36.02         115 
 36.04         142 
 36.06         142 
 36.08         106 
 36.1          101 
 36.12         118 
 36.14         98 
 36.16         106 
 36.18         97 
 36.2          104 
 36.22         82 
 36.24         98 
 36.26         68 
 36.28         84 
 36.3          87 
 36.32         84 
 36.34         76 
 36.36         91 
 36.38         75 
 36.4          96 
 36.42         77 
 36.44         90 
 36.46         87 
 36.48         63 
 36.5          84 
 36.52         75 
 36.54         72 
 36.56         94 
 36.58         77 
 36.6          88 
 36.62         65 
 36.64         90 
 36.66         91 
 36.68         87 
 36.7          80 
 36.72         78 
 36.74         85 
 36.76         113 
 36.78         82 
 36.8          82 
 36.82         93 
 36.84         95 
 36.86         108 
 36.88         113 
 36.9          109 
 36.92         112 
 36.94         122 
 36.96         120 
 36.98         118 
 37            142 
 37.02         150 
 37.04         161 
 37.06         154 
 37.08         200 
 37.1          160 
 37.12         180 
 37.14         159 
 37.16         190 
 37.18         189 
 37.2          191 
 37.22         198 
 37.24         226 
 37.26         251 
 37.28         287 
 37.3          316 
 37.32         355 
 37.34         382 
 37.36         489 
 37.38         546 
 37.4          680 
 37.42         776 
 37.44         987 
 37.46         1236 
 37.48         1462 
 37.5          1841 
 37.52         2128 
 37.54         2401 
 37.56         2680 
 37.58         3079 
 37.6          3116 
 37.62         3321 
 37.64         3333 
 37.66         3547 
 37.68         3382 
 37.7          3417 
 37.72         3106 
 37.74         3189 
 37.76         2821 
 37.78         2736 
 37.8          2323 
 37.82         2026 
 37.84         1780 
 37.86         1397 
 37.88         1198 
 37.9          982 
 37.92         776 
 37.94         611 
 37.96         463 
 37.98         386 
 38            375 
 38.02         322 
 38.04         295 
 38.06         265 
 38.08         229 
 38.1          221 
 38.12         237 
 38.14         173 
 38.16         199 
 38.18         190 
 38.2          193 
 38.22         176 
 38.24         152 
 38.26         137 
 38.28         121 
 38.3          128 
 38.32         88 
 38.34         128 
 38.36         117 
 38.38         87 
 38.4          99 
 38.42         108 
 38.44         114 
 38.46         99 
 38.48         91 
 38.5          110 
 38.52         88 
 38.54         90 
 38.56         71 
 38.58         80 
 38.6          68 
 38.62         78 
 38.64         89 
 38.66         78 
 38.68         79 
 38.7          84 
 38.72         81 
 38.74         77 
 38.76         93 
 38.78         71 
 38.8          84 
 38.82         73 
 38.84         78 
 38.86         79 
 38.88         99 
 38.9          97 
 38.92         84 
 38.94         95 
 38.96         91 
 38.98         100 
 39            74 
 39.02         88 
 39.04         99 
 39.06         90 
 39.08         86 
 39.1          91 
 39.12         85 
 39.14         89 
 39.16         96 
 39.18         88 
 39.2          93 
 39.22         91 
 39.24         95 
 39.26         129 
 39.28         110 
 39.3          115 
 39.32         107 
 39.34         128 
 39.36         135 
 39.38         139 
 39.4          133 
 39.42         138 
 39.44         146 
 39.46         136 
 39.48         135 
 39.5          137 
 39.52         132 
 39.54         127 
 39.56         146 
 39.58         121 
 39.6          109 
 39.62         128 
 39.64         109 
 39.66         114 
 39.68         119 
 39.7          124 
 39.72         102 
 39.74         126 
 39.76         114 
 39.78         115 
 39.8          138 
 39.82         111 
 39.84         123 
 39.86         123 
 39.88         137 
 39.9          115 
 39.92         157 
 39.94         175 
 39.96         185 
 39.98         203 
 40            240 
 40.02         213 
 40.04         216 
 40.06         256 
 40.08         236 
 40.1          249 
 40.12         205 
 40.14         186 
 40.16         178 
 40.18         166 
 40.2          160 
 40.22         129 
 40.24         121 
 40.26         120 
 40.28         128 
 40.3          84 
 40.32         102 
 40.34         75 
 40.36         86 
 40.38         89 
 40.4          83 
 40.42         100 
 40.44         92 
 40.46         81 
 40.48         86 
 40.5          84 
 40.52         75 
 40.54         83 
 40.56         70 
 40.58         68 
 40.6          68 
 40.62         62 
 40.64         72 
 40.66         79 
 40.68         62 
 40.7          78 
 40.72         96 
 40.74         77 
 40.76         78 
 40.78         86 
 40.8          84 
 40.82         79 
 40.84         68 
 40.86         82 
 40.88         83 
 40.9          64 
 40.92         87 
 40.94         75 
 40.96         77 
 40.98         74 
 41            83 
 41.02         88 
 41.04         80 
 41.06         86 
 41.08         79 
 41.1          79 
 41.12         92 
 41.14         68 
 41.16         70 
 41.18         83 
 41.2          76 
 41.22         72 
 41.24         76 
 41.26         75 
 41.28         86 
 41.3          80 
 41.32         95 
 41.34         77 
 41.36         94 
 41.38         89 
 41.4          78 
 41.42         69 
 41.44         81 
 41.46         92 
 41.48         90 
 41.5          86 
 41.52         101 
 41.54         85 
 41.56         97 
 41.58         126 
 41.6          87 
 41.62         123 
 41.64         130 
 41.66         131 
 41.68         140 
 41.7          129 
 41.72         150 
 41.74         146 
 41.76         137 
 41.78         144 
 41.8          134 
 41.82         138 
 41.84         130 
 41.86         127 
 41.88         115 
 41.9          137 
 41.92         110 
 41.94         98 
 41.96         101 
 41.98         88 
 42            99 
 42.02         94 
 42.04         84 
 42.06         86 
 42.08         86 
 42.1          81 
 42.12         85 
 42.14         77 
 42.16         93 
 42.18         83 
 42.2          86 
 42.22         96 
 42.24         79 
 42.26         65 
 42.28         73 
 42.3          61 
 42.32         81 
 42.34         75 
 42.36         91 
 42.38         81 
 42.4          85 
 42.42         86 
 42.44         94 
 42.46         70 
 42.48         93 
 42.5          70 
 42.52         92 
 42.54         86 
 42.56         84 
 42.58         90 
 42.6          96 
 42.62         76 
 42.64         65 
 42.66         82 
 42.68         85 
 42.7          94 
 42.72         83 
 42.74         88 
 42.76         87 
 42.78         92 
 42.8          90 
 42.82         75 
 42.84         102 
 42.86         94 
 42.88         108 
 42.9          105 
 42.92         80 
 42.94         90 
 42.96         96 
 42.98         104 
 43            116 
 43.02         103 
 43.04         115 
 43.06         126 
 43.08         135 
 43.1          165 
 43.12         182 
 43.14         186 
 43.16         215 
 43.18         275 
 43.2          307 
 43.22         368 
 43.24         379 
 43.26         423 
 43.28         438 
 43.3          510 
 43.32         475 
 43.34         504 
 43.36         485 
 43.38         458 
 43.4          428 
 43.42         395 
 43.44         349 
 43.46         345 
 43.48         308 
 43.5          253 
 43.52         207 
 43.54         221 
 43.56         159 
 43.58         158 
 43.6          123 
 43.62         122 
 43.64         123 
 43.66         116 
 43.68         109 
 43.7          95 
 43.72         101 
 43.74         98 
 43.76         88 
 43.78         130 
 43.8          117 
 43.82         109 
 43.84         123 
 43.86         135 
 43.88         109 
 43.9          94 
 43.92         120 
 43.94         119 
 43.96         96 
 43.98         104 
 44            104 
 44.02         102 
 44.04         96 
 44.06         84 
 44.08         87 
 44.1          94 
 44.12         72 
 44.14         78 
 44.16         71 
 44.18         89 
 44.2          68 
 44.22         85 
 44.24         69 
 44.26         74 
 44.28         68 
 44.3          78 
 44.32         75 
 44.34         97 
 44.36         79 
 44.38         62 
 44.4          74 
 44.42         108 
 44.44         79 
 44.46         92 
 44.48         90 
 44.5          75 
 44.52         85 
 44.54         78 
 44.56         77 
 44.58         73 
 44.6          84 
 44.62         97 
 44.64         100 
 44.66         97 
 44.68         85 
 44.7          90 
 44.72         93 
 44.74         88 
 44.76         83 
 44.78         107 
 44.8          83 
 44.82         95 
 44.84         109 
 44.86         102 
 44.88         92 
 44.9          114 
 44.92         113 
 44.94         121 
 44.96         122 
 44.98         107 
 45            151 
 45.02         154 
 45.04         154 
 45.06         186 
 45.08         216 
 45.1          206 
 45.12         245 
 45.14         300 
 45.16         315 
 45.18         403 
 45.2          458 
 45.22         517 
 45.24         563 
 45.26         602 
 45.28         709 
 45.3          612 
 45.32         673 
 45.34         651 
 45.36         686 
 45.38         660 
 45.4          635 
 45.42         586 
 45.44         594 
 45.46         513 
 45.48         455 
 45.5          494 
 45.52         496 
 45.54         481 
 45.56         456 
 45.58         452 
 45.6          428 
 45.62         431 
 45.64         366 
 45.66         391 
 45.68         387 
 45.7          404 
 45.72         386 
 45.74         409 
 45.76         408 
 45.78         488 
 45.8          485 
 45.82         506 
 45.84         514 
 45.86         512 
 45.88         607 
 45.9          549 
 45.92         568 
 45.94         564 
 45.96         558 
 45.98         487 
 46            488 
 46.02         414 
 46.04         352 
 46.06         370 
 46.08         289 
 46.1          247 
 46.12         187 
 46.14         218 
 46.16         184 
 46.18         187 
 46.2          173 
 46.22         178 
 46.24         192 
 46.26         215 
 46.28         216 
 46.3          222 
 46.32         223 
 46.34         270 
 46.36         245 
 46.38         268 
 46.4          263 
 46.42         277 
 46.44         312 
 46.46         288 
 46.48         316 
 46.5          288 
 46.52         353 
 46.54         321 
 46.56         349 
 46.58         345 
 46.6          351 
 46.62         366 
 46.64         349 
 46.66         362 
 46.68         344 
 46.7          337 
 46.72         339 
 46.74         281 
 46.76         254 
 46.78         218 
 46.8          208 
 46.82         221 
 46.84         136 
 46.86         131 
 46.88         140 
 46.9          140 
 46.92         110 
 46.94         87 
 46.96         89 
 46.98         94 
 47            95 
 47.02         94 
 47.04         71 
 47.06         71 
 47.08         85 
 47.1          80 
 47.12         76 
 47.14         76 
 47.16         84 
 47.18         89 
 47.2          77 
 47.22         94 
 47.24         93 
 47.26         86 
 47.28         81 
 47.3          72 
 47.32         68 
 47.34         93 
 47.36         76 
 47.38         76 
 47.4          89 
 47.42         68 
 47.44         79 
 47.46         70 
 47.48         71 
 47.5          73 
 47.52         68 
 47.54         88 
 47.56         87 
 47.58         70 
 47.6          95 
 47.62         74 
 47.64         88 
 47.66         77 
 47.68         90 
 47.7          86 
 47.72         68 
 47.74         78 
 47.76         71 
 47.78         74 
 47.8          74 
 47.82         77 
 47.84         83 
 47.86         76 
 47.88         79 
 47.9          87 
 47.92         93 
 47.94         81 
 47.96         83 
 47.98         72 
 48            89 
 48.02         93 
 48.04         104 
 48.06         100 
 48.08         84 
 48.1          99 
 48.12         105 
 48.14         110 
 48.16         96 
 48.18         93 
 48.2          87 
 48.22         120 
 48.24         106 
 48.26         117 
 48.28         95 
 48.3          111 
 48.32         137 
 48.34         121 
 48.36         141 
 48.38         164 
 48.4          141 
 48.42         160 
 48.44         178 
 48.46         201 
 48.48         202 
 48.5          213 
 48.52         218 
 48.54         229 
 48.56         268 
 48.58         327 
 48.6          336 
 48.62         423 
 48.64         503 
 48.66         653 
 48.68         683 
 48.7          854 
 48.72         1055 
 48.74         1186 
 48.76         1471 
 48.78         1685 
 48.8          1948 
 48.82         2108 
 48.84         2250 
 48.86         2268 
 48.88         2383 
 48.9          2156 
 48.92         2099 
 48.94         1987 
 48.96         1959 
 48.98         1668 
 49            1591 
 49.02         1376 
 49.04         1358 
 49.06         1244 
 49.08         1106 
 49.1          1094 
 49.12         1140 
 49.14         1170 
 49.16         1168 
 49.18         1280 
 49.2          1241 
 49.22         1337 
 49.24         1282 
 49.26         1324 
 49.28         1242 
 49.3          1119 
 49.32         1044 
 49.34         977 
 49.36         875 
 49.38         718 
 49.4          637 
 49.42         567 
 49.44         466 
 49.46         384 
 49.48         294 
 49.5          253 
 49.52         206 
 49.54         169 
 49.56         163 
 49.58         120 
 49.6          126 
 49.62         116 
 49.64         138 
 49.66         109 
 49.68         101 
 49.7          98 
 49.72         92 
 49.74         98 
 49.76         104 
 49.78         96 
 49.8          98 
 49.82         85 
 49.84         113 
 49.86         83 
 49.88         82 
 49.9          92 
 49.92         82 
 49.94         81 
 49.96         91 
 49.98         90 
 50            75 
 50.02         84 
 50.04         98 
 50.06         83 
 50.08         75 
 50.1          73 
 50.12         86 
 50.14         78 
 50.16         75 
 50.18         73 
 50.2          66 
 50.22         82 
 50.24         89 
 50.26         90 
 50.28         80 
 50.3          89 
 50.32         90 
 50.34         88 
 50.36         79 
 50.38         91 
 50.4          86 
 50.42         74 
 50.44         72 
 50.46         67 
 50.48         88 
 50.5          88 
 50.52         78 
 50.54         80 
 50.56         70 
 50.58         85 
 50.6          67 
 50.62         86 
 50.64         69 
 50.66         95 
 50.68         90 
 50.7          103 
 50.72         94 
 50.74         81 
 50.76         120 
 50.78         117 
 50.8          127 
 50.82         130 
 50.84         133 
 50.86         144 
 50.88         183 
 50.9          206 
 50.92         194 
 50.94         235 
 50.96         268 
 50.98         315 
 51            345 
 51.02         443 
 51.04         497 
 51.06         564 
 51.08         585 
 51.1          657 
 51.12         657 
 51.14         718 
 51.16         744 
 51.18         711 
 51.2          723 
 51.22         737 
 51.24         650 
 51.26         650 
 51.28         574 
 51.3          500 
 51.32         508 
 51.34         480 
 51.36         418 
 51.38         389 
 51.4          452 
 51.42         434 
 51.44         453 
 51.46         479 
 51.48         603 
 51.5          647 
 51.52         763 
 51.54         942 
 51.56         1010 
 51.58         1252 
 51.6          1339 
 51.62         1580 
 51.64         1660 
 51.66         1681 
 51.68         1743 
 51.7          1791 
 51.72         1733 
 51.74         1665 
 51.76         1578 
 51.78         1633 
 51.8          1460 
 51.82         1375 
 51.84         1250 
 51.86         1223 
 51.88         1109 
 51.9          1003 
 51.92         910 
 51.94         910 
 51.96         821 
 51.98         676 
 52            692 
 52.02         556 
 52.04         512 
 52.06         447 
 52.08         393 
 52.1          366 
 52.12         318 
 52.14         271 
 52.16         216 
 52.18         204 
 52.2          164 
 52.22         149 
 52.24         150 
 52.26         125 
 52.28         94 
 52.3          116 
 52.32         105 
 52.34         99 
 52.36         89 
 52.38         98 
 52.4          88 
 52.42         95 
 52.44         102 
 52.46         94 
 52.48         99 
 52.5          79 
 52.52         85 
 52.54         82 
 52.56         78 
 52.58         69 
 52.6          65 
 52.62         81 
 52.64         87 
 52.66         89 
 52.68         89 
 52.7          86 
 52.72         73 
 52.74         79 
 52.76         96 
 52.78         79 
 52.8          71 
 52.82         81 
 52.84         94 
 52.86         91 
 52.88         73 
 52.9          78 
 52.92         94 
 52.94         99 
 52.96         79 
 52.98         101 
 53            114 
 53.02         105 
 53.04         111 
 53.06         115 
 53.08         108 
 53.1          133 
 53.12         121 
 53.14         134 
 53.16         153 
 53.18         146 
 53.2          171 
 53.22         198 
 53.24         207 
 53.26         236 
 53.28         230 
 53.3          235 
 53.32         253 
 53.34         256 
 53.36         252 
 53.38         252 
 53.4          252 
 53.42         265 
 53.44         258 
 53.46         260 
 53.48         237 
 53.5          228 
 53.52         189 
 53.54         205 
 53.56         193 
 53.58         170 
 53.6          175 
 53.62         163 
 53.64         135 
 53.66         114 
 53.68         130 
 53.7          108 
 53.72         106 
 53.74         88 
 53.76         98 
 53.78         93 
 53.8          98 
 53.82         107 
 53.84         101 
 53.86         75 
 53.88         86 
 53.9          87 
 53.92         97 
 53.94         87 
 53.96         79 
 53.98         77 
 54            75 
 54.02         74 
 54.04         88 
 54.06         80 
 54.08         71 
 54.1          90 
 54.12         79 
 54.14         66 
 54.16         71 
 54.18         77 
 54.2          96 
 54.22         81 
 54.24         92 
 54.26         92 
 54.28         95 
 54.3          96 
 54.32         91 
 54.34         85 
 54.36         90 
 54.38         82 
 54.4          76 
 54.42         100 
 54.44         76 
 54.46         65 
 54.48         92 
 54.5          67 
 54.52         65 
 54.54         83 
 54.56         80 
 54.58         80 
 54.6          74 
 54.62         66 
 54.64         83 
 54.66         68 
 54.68         68 
 54.7          73 
 54.72         75 
 54.74         65 
 54.76         74 
 54.78         68 
 54.8          70 
 54.82         65 
 54.84         91 
 54.86         62 
 54.88         87 
 54.9          70 
 54.92         72 
 54.94         85 
 54.96         83 
 54.98         83 
 55            70 
 55.02         71 
 55.04         57 
 55.06         64 
 55.08         85 
 55.1          73 
 55.12         67 
 55.14         72 
 55.16         70 
 55.18         92 
 55.2          78 
 55.22         90 
 55.24         80 
 55.26         75 
 55.28         89 
 55.3          81 
 55.32         79 
 55.34         85 
 55.36         103 
 55.38         95 
 55.4          95 
 55.42         89 
 55.44         96 
 55.46         93 
 55.48         122 
 55.5          114 
 55.52         119 
 55.54         107 
 55.56         129 
 55.58         129 
 55.6          128 
 55.62         152 
 55.64         171 
 55.66         174 
 55.68         192 
 55.7          232 
 55.72         268 
 55.74         300 
 55.76         353 
 55.78         421 
 55.8          487 
 55.82         529 
 55.84         610 
 55.86         682 
 55.88         712 
 55.9          762 
 55.92         913 
 55.94         939 
 55.96         954 
 55.98         1053 
 56            1070 
 56.02         1263 
 56.04         1271 
 56.06         1294 
 56.08         1422 
 56.1          1448 
 56.12         1596 
 56.14         1432 
 56.16         1492 
 56.18         1472 
 56.2          1475 
 56.22         1381 
 56.24         1324 
 56.26         1207 
 56.28         1156 
 56.3          998 
 56.32         919 
 56.34         769 
 56.36         718 
 56.38         580 
 56.4          536 
 56.42         450 
 56.44         367 
 56.46         333 
 56.48         282 
 56.5          266 
 56.52         190 
 56.54         168 
 56.56         142 
 56.58         153 
 56.6          127 
 56.62         144 
 56.64         133 
 56.66         112 
 56.68         116 
 56.7          111 
 56.72         115 
 56.74         103 
 56.76         105 
 56.78         104 
 56.8          119 
 56.82         101 
 56.84         94 
 56.86         108 
 56.88         86 
 56.9          81 
 56.92         110 
 56.94         91 
 56.96         96 
 56.98         87 
 57            95 
 57.02         91 
 57.04         91 
 57.06         89 
 57.08         85 
 57.1          83 
 57.12         85 
 57.14         77 
 57.16         74 
 57.18         78 
 57.2          75 
 57.22         82 
 57.24         72 
 57.26         76 
 57.28         65 
 57.3          66 
 57.32         67 
 57.34         72 
 57.36         66 
 57.38         70 
 57.4          72 
 57.42         64 
 57.44         97 
 57.46         78 
 57.48         71 
 57.5          75 
 57.52         81 
 57.54         75 
 57.56         75 
 57.58         85 
 57.6          70 
 57.62         73 
 57.64         83 
 57.66         70 
 57.68         68 
 57.7          88 
 57.72         64 
 57.74         87 
 57.76         78 
 57.78         110 
 57.8          90 
 57.82         91 
 57.84         106 
 57.86         109 
 57.88         100 
 57.9          122 
 57.92         119 
 57.94         146 
 57.96         133 
 57.98         151 
 58            176 
 58.02         184 
 58.04         189 
 58.06         233 
 58.08         271 
 58.1          282 
 58.12         311 
 58.14         300 
 58.16         339 
 58.18         329 
 58.2          330 
 58.22         352 
 58.24         335 
 58.26         366 
 58.28         301 
 58.3          356 
 58.32         343 
 58.34         319 
 58.36         332 
 58.38         323 
 58.4          299 
 58.42         293 
 58.44         292 
 58.46         355 
 58.48         308 
 58.5          320 
 58.52         368 
 58.54         391 
 58.56         474 
 58.58         499 
 58.6          604 
 58.62         654 
 58.64         744 
 58.66         833 
 58.68         978 
 58.7          1100 
 58.72         1184 
 58.74         1207 
 58.76         1327 
 58.78         1350 
 58.8          1365 
 58.82         1421 
 58.84         1399 
 58.86         1386 
 58.88         1353 
 58.9          1453 
 58.92         1418 
 58.94         1493 
 58.96         1625 
 58.98         1616 
 59            1775 
 59.02         1863 
 59.04         1941 
 59.06         2107 
 59.08         2286 
 59.1          2255 
 59.12         2353 
 59.14         2443 
 59.16         2389 
 59.18         2559 
 59.2          2378 
 59.22         2295 
 59.24         2290 
 59.26         2140 
 59.28         2007 
 59.3          1838 
 59.32         1616 
 59.34         1528 
 59.36         1324 
 59.38         1154 
 59.4          951 
 59.42         850 
 59.44         774 
 59.46         655 
 59.48         538 
 59.5          438 
 59.52         378 
 59.54         305 
 59.56         261 
 59.58         226 
 59.6          214 
 59.62         180 
 59.64         154 
 59.66         155 
 59.68         159 
 59.7          135 
 59.72         143 
 59.74         127 
 59.76         112 
 59.78         116 
 59.8          103 
 59.82         112 
 59.84         119 
 59.86         105 
 59.88         105 
 59.9          103 
 59.92         93 
 59.94         110 
 59.96         92 
 59.98         107 
 60            100 
 60.02         112 
 60.04         108 
 60.06         100 
 60.08         99 
 60.1          105 
 60.12         106 
 60.14         121 
 60.16         116 
 60.18         104 
 60.2          140 
 60.22         127 
 60.24         133 
 60.26         153 
 60.28         185 
 60.3          200 
 60.32         205 
 60.34         207 
 60.36         236 
 60.38         201 
 60.4          214 
 60.42         198 
 60.44         227 
 60.46         208 
 60.48         221 
 60.5          240 
 60.52         205 
 60.54         217 
 60.56         239 
 60.58         268 
 60.6          284 
 60.62         327 
 60.64         366 
 60.66         395 
 60.68         418 
 60.7          475 
 60.72         481 
 60.74         508 
 60.76         572 
 60.78         587 
 60.8          555 
 60.82         587 
 60.84         613 
 60.86         632 
 60.88         579 
 60.9          550 
 60.92         598 
 60.94         487 
 60.96         516 
 60.98         409 
 61            406 
 61.02         318 
 61.04         330 
 61.06         310 
 61.08         265 
 61.1          227 
 61.12         222 
 61.14         177 
 61.16         142 
 61.18         159 
 61.2          123 
 61.22         142 
 61.24         115 
 61.26         90 
 61.28         113 
 61.3          77 
 61.32         74 
 61.34         79 
 61.36         95 
 61.38         106 
 61.4          89 
 61.42         90 
 61.44         80 
 61.46         84 
 61.48         98 
 61.5          82 
 61.52         79 
 61.54         77 
 61.56         88 
 61.58         102 
 61.6          73 
 61.62         86 
 61.64         93 
 61.66         108 
 61.68         87 
 61.7          94 
 61.72         98 
 61.74         90 
 61.76         84 
 61.78         94 
 61.8          75 
 61.82         104 
 61.84         87 
 61.86         79 
 61.88         82 
 61.9          75 
 61.92         90 
 61.94         82 
 61.96         71 
 61.98         84 
 62            63 
 62.02         71 
 62.04         95 
 62.06         73 
 62.08         75 
 62.1          78 
 62.12         64 
 62.14         56 
 62.16         72 
 62.18         73 
 62.2          79 
 62.22         65 
 62.24         68 
 62.26         74 
 62.28         76 
 62.3          93 
 62.32         80 
 62.34         69 
 62.36         67 
 62.38         69 
 62.4          78 
 62.42         67 
 62.44         69 
 62.46         77 
 62.48         64 
 62.5          79 
 62.52         85 
 62.54         63 
 62.56         89 
 62.58         70 
 62.6          96 
 62.62         62 
 62.64         59 
 62.66         66 
 62.68         74 
 62.7          77 
 62.72         66 
 62.74         81 
 62.76         86 
 62.78         62 
 62.8          82 
 62.82         84 
 62.84         88 
 62.86         86 
 62.88         82 
 62.9          98 
 62.92         92 
 62.94         103 
 62.96         97 
 62.98         107 
 63            86 
 63.02         105 
 63.04         140 
 63.06         144 
 63.08         132 
 63.1          173 
 63.12         194 
 63.14         224 
 63.16         271 
 63.18         271 
 63.2          294 
 63.22         391 
 63.24         430 
 63.26         438 
 63.28         566 
 63.3          515 
 63.32         625 
 63.34         561 
 63.36         581 
 63.38         533 
 63.4          530 
 63.42         499 
 63.44         477 
 63.46         443 
 63.48         427 
 63.5          374 
 63.52         335 
 63.54         272 
 63.56         269 
 63.58         261 
 63.6          245 
 63.62         185 
 63.64         175 
 63.66         169 
 63.68         142 
 63.7          112 
 63.72         119 
 63.74         123 
 63.76         93 
 63.78         109 
 63.8          86 
 63.82         101 
 63.84         71 
 63.86         86 
 63.88         81 
 63.9          83 
 63.92         84 
 63.94         96 
 63.96         81 
 63.98         72 
 64            83 
 64.02         86 
 64.04         66 
 64.06         78 
 64.08         73 
 64.1          93 
 64.12         99 
 64.14         74 
 64.16         72 
 64.18         101 
 64.2          87 
 64.22         95 
 64.24         96 
 64.26         99 
 64.28         117 
 64.3          104 
 64.32         104 
 64.34         114 
 64.36         130 
 64.38         131 
 64.4          143 
 64.42         139 
 64.44         156 
 64.46         162 
 64.48         188 
 64.5          199 
 64.52         170 
 64.54         233 
 64.56         255 
 64.58         236 
 64.6          286 
 64.62         287 
 64.64         272 
 64.66         272 
 64.68         295 
 64.7          279 
 64.72         291 
 64.74         327 
 64.76         289 
 64.78         282 
 64.8          273 
 64.82         287 
 64.84         287 
 64.86         267 
 64.88         286 
 64.9          285 
 64.92         316 
 64.94         332 
 64.96         329 
 64.98         346 
 65            353 
 65.02         364 
 65.04         402 
 65.06         461 
 65.08         471 
 65.1          493 
 65.12         634 
 65.14         652 
 65.16         705 
 65.18         766 
 65.2          842 
 65.22         918 
 65.24         1032 
 65.26         975 
 65.28         1068 
 65.3          1063 
 65.32         1113 
 65.34         1114 
 65.36         1045 
 65.38         1021 
 65.4          997 
 65.42         927 
 65.44         860 
 65.46         868 
 65.48         764 
 65.5          838 
 65.52         764 
 65.54         815 
 65.56         796 
 65.58         755 
 65.6          795 
 65.62         857 
 65.64         920 
 65.66         898 
 65.68         930 
 65.7          896 
 65.72         894 
 65.74         913 
 65.76         921 
 65.78         860 
 65.8          802 
 65.82         745 
 65.84         690 
 65.86         654 
 65.88         676 
 65.9          588 
 65.92         553 
 65.94         465 
 65.96         473 
 65.98         422 
 66            363 
 66.02         333 
 66.04         304 
 66.06         269 
 66.08         243 
 66.1          202 
 66.12         192 
 66.14         185 
 66.16         167 
 66.18         159 
 66.2          150 
 66.22         110 
 66.24         140 
 66.26         131 
 66.28         121 
 66.3          124 
 66.32         119 
 66.34         109 
 66.36         113 
 66.38         110 
 66.4          93 
 66.42         88 
 66.44         92 
 66.46         104 
 66.48         92 
 66.5          85 
 66.52         91 
 66.54         86 
 66.56         92 
 66.58         84 
 66.6          58 
 66.62         86 
 66.64         92 
 66.66         76 
 66.68         75 
 66.7          98 
 66.72         87 
 66.74         89 
 66.76         78 
 66.78         95 
 66.8          90 
 66.82         91 
 66.84         127 
 66.86         92 
 66.88         92 
 66.9          91 
 66.92         90 
 66.94         125 
 66.96         104 
 66.98         107 
 67            87 
 67.02         123 
 67.04         126 
 67.06         100 
 67.08         114 
 67.1          115 
 67.12         110 
 67.14         107 
 67.16         113 
 67.18         90 
 67.2          107 
 67.22         91 
 67.24         105 
 67.26         96 
 67.28         102 
 67.3          86 
 67.32         100 
 67.34         127 
 67.36         105 
 67.38         108 
 67.4          119 
 67.42         110 
 67.44         128 
 67.46         137 
 67.48         121 
 67.5          131 
 67.52         152 
 67.54         175 
 67.56         186 
 67.58         196 
 67.6          228 
 67.62         263 
 67.64         318 
 67.66         310 
 67.68         304 
 67.7          358 
 67.72         347 
 67.74         351 
 67.76         370 
 67.78         383 
 67.8          414 
 67.82         463 
 67.84         478 
 67.86         490 
 67.88         464 
 67.9          521 
 67.92         612 
 67.94         626 
 67.96         690 
 67.98         735 
 68            709 
 68.02         738 
 68.04         796 
 68.06         736 
 68.08         757 
 68.1          759 
 68.12         770 
 68.14         761 
 68.16         712 
 68.18         691 
 68.2          680 
 68.22         584 
 68.24         578 
 68.26         513 
 68.28         503 
 68.3          428 
 68.32         412 
 68.34         335 
 68.36         319 
 68.38         302 
 68.4          257 
 68.42         266 
 68.44         221 
 68.46         198 
 68.48         199 
 68.5          169 
 68.52         200 
 68.54         181 
 68.56         171 
 68.58         174 
 68.6          171 
 68.62         185 
 68.64         188 
 68.66         187 
 68.68         233 
 68.7          225 
 68.72         235 
 68.74         280 
 68.76         284 
 68.78         295 
 68.8          361 
 68.82         344 
 68.84         408 
 68.86         461 
 68.88         471 
 68.9          536 
 68.92         523 
 68.94         607 
 68.96         581 
 68.98         618 
 69            636 
 69.02         590 
 69.04         644 
 69.06         546 
 69.08         557 
 69.1          585 
 69.12         515 
 69.14         542 
 69.16         479 
 69.18         489 
 69.2          445 
 69.22         415 
 69.24         360 
 69.26         385 
 69.28         336 
 69.3          308 
 69.32         310 
 69.34         270 
 69.36         337 
 69.38         285 
 69.4          311 
 69.42         294 
 69.44         329 
 69.46         375 
 69.48         375 
 69.5          413 
 69.52         448 
 69.54         525 
 69.56         543 
 69.58         517 
 69.6          561 
 69.62         557 
 69.64         557 
 69.66         528 
 69.68         580 
 69.7          537 
 69.72         467 
 69.74         472 
 69.76         445 
 69.78         481 
 69.8          407 
 69.82         405 
 69.84         330 
 69.86         338 
 69.88         314 
 69.9          255 
 69.92         246 
 69.94         206 
 69.96         200 
 69.98         157 
 70            146 
 70.02         177 
 70.04         156 
 70.06         124 
 70.08         147 
 70.1          103 
 70.12         91 
 70.14         114 
 70.16         97 
 70.18         75 
 70.2          98 
 70.22         108 
 70.24         90 
 70.26         106 
 70.28         100 
 70.3          79 
 70.32         100 
 70.34         89 
 70.36         104 
 70.38         105 
 70.4          72 
 70.42         87 
 70.44         89 
 70.46         68 
 70.48         77 
 70.5          89 
 70.52         87 
 70.54         82 
 70.56         87 
 70.58         70 
 70.6          95 
 70.62         65 
 70.64         89 
 70.66         79 
 70.68         85 
 70.7          82 
 70.72         89 
 70.74         72 
 70.76         64 
 70.78         69 
 70.8          76 
 70.82         62 
 70.84         71 
 70.86         84 
 70.88         85 
 70.9          80 
 70.92         74 
 70.94         84 
 70.96         74 
 70.98         72 
 71            69 
 71.02         76 
 71.04         92 
 71.06         74 
 71.08         79 
 71.1          92 
 71.12         98 
 71.14         88 
 71.16         103 
 71.18         100 
 71.2          106 
 71.22         130 
 71.24         144 
 71.26         150 
 71.28         181 
 71.3          186 
 71.32         192 
 71.34         224 
 71.36         258 
 71.38         260 
 71.4          259 
 71.42         288 
 71.44         320 
 71.46         320 
 71.48         324 
 71.5          293 
 71.52         297 
 71.54         318 
 71.56         321 
 71.58         270 
 71.6          285 
 71.62         319 
 71.64         274 
 71.66         255 
 71.68         247 
 71.7          207 
 71.72         199 
 71.74         198 
 71.76         189 
 71.78         189 
 71.8          183 
 71.82         151 
 71.84         144 
 71.86         154 
 71.88         156 
 71.9          129 
 71.92         130 
 71.94         166 
 71.96         161 
 71.98         189 
 72            175 
 72.02         200 
 72.04         200 
 72.06         255 
 72.08         265 
 72.1          296 
 72.12         289 
 72.14         368 
 72.16         353 
 72.18         403 
 72.2          461 
 72.22         442 
 72.24         488 
 72.26         525 
 72.28         509 
 72.3          550 
 72.32         551 
 72.34         564 
 72.36         552 
 72.38         507 
 72.4          543 
 72.42         510 
 72.44         568 
 72.46         495 
 72.48         504 
 72.5          547 
 72.52         501 
 72.54         499 
 72.56         459 
 72.58         450 
 72.6          428 
 72.62         400 
 72.64         371 
 72.66         371 
 72.68         317 
 72.7          309 
 72.72         298 
 72.74         304 
 72.76         267 
 72.78         287 
 72.8          286 
 72.82         254 
 72.84         226 
 72.86         232 
 72.88         237 
 72.9          225 
 72.92         237 
 72.94         239 
 72.96         257 
 72.98         276 
 73            296 
 73.02         300 
 73.04         314 
 73.06         352 
 73.08         360 
 73.1          360 
 73.12         406 
 73.14         465 
 73.16         460 
 73.18         499 
 73.2          512 
 73.22         529 
 73.24         510 
 73.26         543 
 73.28         518 
 73.3          530 
 73.32         545 
 73.34         568 
 73.36         541 
 73.38         591 
 73.4          535 
 73.42         525 
 73.44         515 
 73.46         526 
 73.48         460 
 73.5          451 
 73.52         413 
 73.54         481 
 73.56         416 
 73.58         436 
 73.6          451 
 73.62         395 
 73.64         417 
 73.66         413 
 73.68         400 
 73.7          447 
 73.72         452 
 73.74         483 
 73.76         462 
 73.78         517 
 73.8          516 
 73.82         525 
 73.84         545 
 73.86         501 
 73.88         544 
 73.9          558 
 73.92         477 
 73.93999      493 
 73.96         486 
 73.98         495 
 74            494 
 74.02         431 
 74.04         412 
 74.06         410 
 74.08         376 
 74.1          350 
 74.12         309 
 74.14         308 
 74.16         268 
 74.18         233 
 74.2          245 
 74.22         236 
 74.24         222 
 74.26         197 
 74.28         194 
 74.3          151 
 74.32         151 
 74.34         153 
 74.36         126 
 74.38         123 
 74.4          136 
 74.42         129 
 74.43999      111 
 74.46         93 
 74.48         106 
 74.5          97 
 74.52         74 
 74.54         91 
 74.56         95 
 74.58         90 
 74.6          88 
 74.62         89 
 74.64         91 
 74.66         85 
 74.68         71 
 74.7          78 
 74.72         74 
 74.74         68 
 74.76         100 
 74.78         67 
 74.8          67 
 74.82         86 
 74.84         75 
 74.86         81 
 74.88         80 
 74.9          79 
 74.92         65 
 74.93999      85 
 74.96         83 
 74.98         69 
 75            92 
