F900-1050-2St_P2-Probe10  Original Data
 3151 
 12            197 
 12.02         177 
 12.04         166 
 12.06         192 
 12.08         211 
 12.1          208 
 12.12         181 
 12.14         192 
 12.16         197 
 12.18         200 
 12.2          176 
 12.22         199 
 12.24         179 
 12.26         198 
 12.28         172 
 12.3          176 
 12.32         219 
 12.34         182 
 12.36         192 
 12.38         209 
 12.4          194 
 12.42         192 
 12.44         178 
 12.46         211 
 12.48         197 
 12.5          172 
 12.52         211 
 12.54         185 
 12.56         184 
 12.58         192 
 12.6          220 
 12.62         187 
 12.64         175 
 12.66         218 
 12.68         187 
 12.7          173 
 12.72         199 
 12.74         213 
 12.76         192 
 12.78         191 
 12.8          186 
 12.82         191 
 12.84         230 
 12.86         197 
 12.88         176 
 12.9          176 
 12.92         198 
 12.94         205 
 12.96         197 
 12.98         168 
 13            198 
 13.02         189 
 13.04         171 
 13.06         191 
 13.08         190 
 13.1          168 
 13.12         182 
 13.14         184 
 13.16         199 
 13.18         199 
 13.2          217 
 13.22         197 
 13.24         171 
 13.26         173 
 13.28         226 
 13.3          164 
 13.32         197 
 13.34         218 
 13.36         188 
 13.38         173 
 13.4          165 
 13.42         192 
 13.44         197 
 13.46         203 
 13.48         188 
 13.5          199 
 13.52         172 
 13.54         190 
 13.56         177 
 13.58         193 
 13.6          180 
 13.62         182 
 13.64         197 
 13.66         195 
 13.68         212 
 13.7          214 
 13.72         203 
 13.74         179 
 13.76         204 
 13.78         188 
 13.8          193 
 13.82         205 
 13.84         195 
 13.86         206 
 13.88         184 
 13.9          209 
 13.92         202 
 13.94         195 
 13.96         199 
 13.98         189 
 14            207 
 14.02         187 
 14.04         181 
 14.06         183 
 14.08         208 
 14.1          185 
 14.12         194 
 14.14         178 
 14.16         182 
 14.18         189 
 14.2          203 
 14.22         187 
 14.24         188 
 14.26         190 
 14.28         169 
 14.3          173 
 14.32         209 
 14.34         180 
 14.36         201 
 14.38         191 
 14.4          192 
 14.42         189 
 14.44         163 
 14.46         195 
 14.48         193 
 14.5          200 
 14.52         221 
 14.54         227 
 14.56         190 
 14.58         210 
 14.6          207 
 14.62         210 
 14.64         205 
 14.66         203 
 14.68         223 
 14.7          250 
 14.72         255 
 14.74         237 
 14.76         306 
 14.78         268 
 14.8          330 
 14.82         332 
 14.84         359 
 14.86         383 
 14.88         498 
 14.9          475 
 14.92         494 
 14.94         601 
 14.96         668 
 14.98         744 
 15            798 
 15.02         935 
 15.04         1065 
 15.06         1256 
 15.08         1376 
 15.1          1639 
 15.12         1872 
 15.14         2293 
 15.16         2721 
 15.18         3208 
 15.2          3657 
 15.22         4340 
 15.24         4841 
 15.26         5044 
 15.28         5170 
 15.3          4818 
 15.32         4218 
 15.34         3292 
 15.36         2437 
 15.38         1572 
 15.4          1032 
 15.42         640 
 15.44         504 
 15.46         394 
 15.48         344 
 15.5          279 
 15.52         267 
 15.54         240 
 15.56         260 
 15.58         190 
 15.6          223 
 15.62         215 
 15.64         214 
 15.66         223 
 15.68         217 
 15.7          212 
 15.72         198 
 15.74         199 
 15.76         200 
 15.78         215 
 15.8          215 
 15.82         206 
 15.84         205 
 15.86         183 
 15.88         216 
 15.9          180 
 15.92         182 
 15.94         196 
 15.96         207 
 15.98         196 
 16            234 
 16.02         189 
 16.04         197 
 16.06         212 
 16.08         196 
 16.1          208 
 16.12         193 
 16.14         203 
 16.16         175 
 16.18         205 
 16.2          190 
 16.22         156 
 16.24         182 
 16.26         187 
 16.28         185 
 16.3          216 
 16.32         172 
 16.34         210 
 16.36         191 
 16.38         180 
 16.4          190 
 16.42         203 
 16.44         205 
 16.46         199 
 16.48         194 
 16.5          175 
 16.52         198 
 16.54         181 
 16.56         214 
 16.58         179 
 16.6          171 
 16.62         194 
 16.64         187 
 16.66         220 
 16.68         208 
 16.7          212 
 16.72         202 
 16.74         212 
 16.76         180 
 16.78         213 
 16.8          182 
 16.82         211 
 16.84         200 
 16.86         222 
 16.88         186 
 16.9          197 
 16.92         199 
 16.94         222 
 16.96         207 
 16.98         179 
 17            179 
 17.02         196 
 17.04         184 
 17.06         212 
 17.08         190 
 17.1          182 
 17.12         214 
 17.14         166 
 17.16         206 
 17.18         179 
 17.2          206 
 17.22         184 
 17.24         212 
 17.26         179 
 17.28         210 
 17.3          173 
 17.32         196 
 17.34         200 
 17.36         201 
 17.38         202 
 17.4          186 
 17.42         209 
 17.44         199 
 17.46         190 
 17.48         197 
 17.5          206 
 17.52         201 
 17.54         186 
 17.56         209 
 17.58         211 
 17.6          215 
 17.62         199 
 17.64         203 
 17.66         209 
 17.68         203 
 17.7          216 
 17.72         217 
 17.74         214 
 17.76         219 
 17.78         209 
 17.8          217 
 17.82         223 
 17.84         238 
 17.86         229 
 17.88         249 
 17.9          243 
 17.92         267 
 17.94         258 
 17.96         296 
 17.98         319 
 18            322 
 18.02         283 
 18.04         245 
 18.06         284 
 18.08         257 
 18.1          245 
 18.12         206 
 18.14         209 
 18.16         181 
 18.18         178 
 18.2          198 
 18.22         187 
 18.24         206 
 18.26         200 
 18.28         174 
 18.3          196 
 18.32         185 
 18.34         171 
 18.36         166 
 18.38         203 
 18.4          188 
 18.42         197 
 18.44         181 
 18.46         169 
 18.48         161 
 18.5          167 
 18.52         179 
 18.54         181 
 18.56         175 
 18.58         182 
 18.6          176 
 18.62         187 
 18.64         187 
 18.66         196 
 18.68         172 
 18.7          177 
 18.72         195 
 18.74         183 
 18.76         171 
 18.78         165 
 18.8          174 
 18.82         166 
 18.84         165 
 18.86         187 
 18.88         154 
 18.9          158 
 18.92         165 
 18.94         183 
 18.96         159 
 18.98         187 
 19            163 
 19.02         185 
 19.04         149 
 19.06         173 
 19.08         161 
 19.1          159 
 19.12         172 
 19.14         178 
 19.16         183 
 19.18         185 
 19.2          144 
 19.22         169 
 19.24         195 
 19.26         138 
 19.28         166 
 19.3          176 
 19.32         196 
 19.34         171 
 19.36         184 
 19.38         165 
 19.4          176 
 19.42         164 
 19.44         165 
 19.46         164 
 19.48         166 
 19.5          182 
 19.52         194 
 19.54         180 
 19.56         173 
 19.58         162 
 19.6          160 
 19.62         187 
 19.64         175 
 19.66         165 
 19.68         186 
 19.7          155 
 19.72         180 
 19.74         189 
 19.76         166 
 19.78         184 
 19.8          181 
 19.82         172 
 19.84         151 
 19.86         164 
 19.88         163 
 19.9          181 
 19.92         168 
 19.94         154 
 19.96         169 
 19.98         198 
 20            169 
 20.02         172 
 20.04         157 
 20.06         151 
 20.08         157 
 20.1          200 
 20.12         165 
 20.14         165 
 20.16         159 
 20.18         190 
 20.2          186 
 20.22         173 
 20.24         172 
 20.26         170 
 20.28         171 
 20.3          179 
 20.32         186 
 20.34         227 
 20.36         208 
 20.38         210 
 20.4          206 
 20.42         191 
 20.44         223 
 20.46         233 
 20.48         253 
 20.5          256 
 20.52         230 
 20.54         256 
 20.56         268 
 20.58         265 
 20.6          297 
 20.62         303 
 20.64         354 
 20.66         285 
 20.68         327 
 20.7          321 
 20.72         272 
 20.74         316 
 20.76         257 
 20.78         288 
 20.8          272 
 20.82         250 
 20.84         265 
 20.86         258 
 20.88         286 
 20.9          259 
 20.92         286 
 20.94         322 
 20.96         293 
 20.98         408 
 21            437 
 21.02         426 
 21.04         495 
 21.06         598 
 21.08         691 
 21.1          815 
 21.12         943 
 21.14         1113 
 21.16         1333 
 21.18         1565 
 21.2          1885 
 21.22         2168 
 21.24         2610 
 21.26         3203 
 21.28         4001 
 21.3          4956 
 21.32         5992 
 21.34         7363 
 21.36         8971 
 21.38         11000 
 21.4          13002 
 21.42         15447 
 21.44         16794 
 21.46         18004 
 21.48         18119 
 21.5          17535 
 21.52         16119 
 21.54         14266 
 21.56         12845 
 21.58         11708 
 21.6          11270 
 21.62         11471 
 21.64         12067 
 21.66         12692 
 21.68         13220 
 21.7          13029 
 21.72         12545 
 21.74         10834 
 21.76         9377 
 21.78         7287 
 21.8          5483 
 21.82         3989 
 21.84         2986 
 21.86         2216 
 21.88         1636 
 21.9          1457 
 21.92         1423 
 21.94         1340 
 21.96         1249 
 21.98         1206 
 22            1165 
 22.02         1179 
 22.04         922 
 22.06         840 
 22.08         653 
 22.1          564 
 22.12         470 
 22.14         407 
 22.16         378 
 22.18         335 
 22.2          323 
 22.22         268 
 22.24         292 
 22.26         286 
 22.28         285 
 22.3          265 
 22.32         263 
 22.34         269 
 22.36         209 
 22.38         214 
 22.4          212 
 22.42         233 
 22.44         215 
 22.46         197 
 22.48         203 
 22.5          222 
 22.52         191 
 22.54         214 
 22.56         191 
 22.58         176 
 22.6          191 
 22.62         201 
 22.64         171 
 22.66         191 
 22.68         188 
 22.7          224 
 22.72         191 
 22.74         177 
 22.76         190 
 22.78         192 
 22.8          185 
 22.82         205 
 22.84         184 
 22.86         203 
 22.88         189 
 22.9          199 
 22.92         178 
 22.94         220 
 22.96         207 
 22.98         192 
 23            199 
 23.02         203 
 23.04         196 
 23.06         196 
 23.08         182 
 23.1          194 
 23.12         176 
 23.14         186 
 23.16         169 
 23.18         180 
 23.2          187 
 23.22         208 
 23.24         190 
 23.26         215 
 23.28         195 
 23.3          213 
 23.32         211 
 23.34         214 
 23.36         240 
 23.38         250 
 23.4          248 
 23.42         260 
 23.44         276 
 23.46         281 
 23.48         292 
 23.5          261 
 23.52         239 
 23.54         222 
 23.56         240 
 23.58         203 
 23.6          211 
 23.62         191 
 23.64         186 
 23.66         190 
 23.68         173 
 23.7          174 
 23.72         146 
 23.74         159 
 23.76         191 
 23.78         179 
 23.8          158 
 23.82         155 
 23.84         171 
 23.86         167 
 23.88         158 
 23.9          157 
 23.92         156 
 23.94         189 
 23.96         172 
 23.98         167 
 24            159 
 24.02         175 
 24.04         151 
 24.06         150 
 24.08         170 
 24.1          187 
 24.12         172 
 24.14         180 
 24.16         164 
 24.18         163 
 24.2          183 
 24.22         168 
 24.24         165 
 24.26         161 
 24.28         164 
 24.3          171 
 24.32         181 
 24.34         179 
 24.36         172 
 24.38         187 
 24.4          174 
 24.42         186 
 24.44         168 
 24.46         160 
 24.48         190 
 24.5          193 
 24.52         152 
 24.54         192 
 24.56         169 
 24.58         167 
 24.6          170 
 24.62         181 
 24.64         169 
 24.66         184 
 24.68         228 
 24.7          181 
 24.72         203 
 24.74         191 
 24.76         205 
 24.78         217 
 24.8          254 
 24.82         250 
 24.84         266 
 24.86         303 
 24.88         341 
 24.9          387 
 24.92         414 
 24.94         514 
 24.96         521 
 24.98         613 
 25            733 
 25.02         853 
 25.04         1096 
 25.06         1242 
 25.08         1547 
 25.1          1875 
 25.12         2355 
 25.14         2922 
 25.16         3532 
 25.18         4428 
 25.2          5643 
 25.22         7364 
 25.24         9345 
 25.26         11654 
 25.28         13943 
 25.3          17135 
 25.32         19106 
 25.34         21078 
 25.36         21417 
 25.38         20463 
 25.4          18597 
 25.42         15499 
 25.44         12220 
 25.46         8986 
 25.48         6236 
 25.5          4286 
 25.52         2862 
 25.54         1928 
 25.56         1376 
 25.58         1024 
 25.6          891 
 25.62         737 
 25.64         650 
 25.66         568 
 25.68         502 
 25.7          457 
 25.72         419 
 25.74         398 
 25.76         351 
 25.78         346 
 25.8          340 
 25.82         414 
 25.84         376 
 25.86         432 
 25.88         441 
 25.9          542 
 25.92         549 
 25.94         628 
 25.96         689 
 25.98         743 
 26            846 
 26.02         919 
 26.04         966 
 26.06         1039 
 26.08         1072 
 26.1          1103 
 26.12         1136 
 26.14         1179 
 26.16         1124 
 26.18         1014 
 26.2          971 
 26.22         886 
 26.24         763 
 26.26         715 
 26.28         550 
 26.3          498 
 26.32         445 
 26.34         383 
 26.36         371 
 26.38         318 
 26.4          286 
 26.42         323 
 26.44         330 
 26.46         361 
 26.48         371 
 26.5          354 
 26.52         359 
 26.54         344 
 26.56         358 
 26.58         384 
 26.6          346 
 26.62         315 
 26.64         318 
 26.66         258 
 26.68         281 
 26.7          231 
 26.72         225 
 26.74         214 
 26.76         211 
 26.78         220 
 26.8          210 
 26.82         181 
 26.84         191 
 26.86         179 
 26.88         172 
 26.9          172 
 26.92         172 
 26.94         176 
 26.96         143 
 26.98         157 
 27            149 
 27.02         167 
 27.04         150 
 27.06         131 
 27.08         159 
 27.1          166 
 27.12         170 
 27.14         159 
 27.16         157 
 27.18         154 
 27.2          158 
 27.22         137 
 27.24         131 
 27.26         148 
 27.28         151 
 27.3          165 
 27.32         164 
 27.34         137 
 27.36         137 
 27.38         161 
 27.4          157 
 27.42         144 
 27.44         158 
 27.46         148 
 27.48         157 
 27.5          160 
 27.52         166 
 27.54         168 
 27.56         175 
 27.58         192 
 27.6          137 
 27.62         170 
 27.64         177 
 27.66         181 
 27.68         175 
 27.7          165 
 27.72         153 
 27.74         185 
 27.76         201 
 27.78         175 
 27.8          146 
 27.82         180 
 27.84         147 
 27.86         145 
 27.88         183 
 27.9          162 
 27.92         177 
 27.94         177 
 27.96         135 
 27.98         153 
 28            149 
 28.02         162 
 28.04         178 
 28.06         195 
 28.08         166 
 28.1          170 
 28.12         164 
 28.14         171 
 28.16         155 
 28.18         142 
 28.2          163 
 28.22         167 
 28.24         159 
 28.26         173 
 28.28         182 
 28.3          197 
 28.32         163 
 28.34         187 
 28.36         185 
 28.38         193 
 28.4          182 
 28.42         160 
 28.44         192 
 28.46         164 
 28.48         178 
 28.5          167 
 28.52         159 
 28.54         171 
 28.56         154 
 28.58         153 
 28.6          168 
 28.62         163 
 28.64         146 
 28.66         138 
 28.68         108 
 28.7          160 
 28.72         143 
 28.74         133 
 28.76         150 
 28.78         154 
 28.8          149 
 28.82         139 
 28.84         134 
 28.86         143 
 28.88         127 
 28.9          126 
 28.92         116 
 28.94         149 
 28.96         147 
 28.98         143 
 29            125 
 29.02         130 
 29.04         155 
 29.06         144 
 29.08         134 
 29.1          127 
 29.12         145 
 29.14         140 
 29.16         138 
 29.18         125 
 29.2          122 
 29.22         119 
 29.24         126 
 29.26         133 
 29.28         143 
 29.3          140 
 29.32         140 
 29.34         113 
 29.36         126 
 29.38         129 
 29.4          129 
 29.42         129 
 29.44         154 
 29.46         129 
 29.48         126 
 29.5          120 
 29.52         156 
 29.54         143 
 29.56         142 
 29.58         129 
 29.6          123 
 29.62         150 
 29.64         150 
 29.66         158 
 29.68         141 
 29.7          155 
 29.72         168 
 29.74         160 
 29.76         131 
 29.78         141 
 29.8          164 
 29.82         138 
 29.84         144 
 29.86         167 
 29.88         141 
 29.9          187 
 29.92         179 
 29.94         182 
 29.96         200 
 29.98         207 
 30            214 
 30.02         208 
 30.04         224 
 30.06         255 
 30.08         220 
 30.1          226 
 30.12         224 
 30.14         256 
 30.16         226 
 30.18         304 
 30.2          284 
 30.22         318 
 30.24         304 
 30.26         358 
 30.28         377 
 30.3          450 
 30.32         506 
 30.34         674 
 30.36         795 
 30.38         953 
 30.4          1124 
 30.42         1455 
 30.44         1928 
 30.46         2415 
 30.48         3232 
 30.5          4125 
 30.52         5197 
 30.54         6757 
 30.56         8224 
 30.58         9768 
 30.6          10739 
 30.62         11311 
 30.64         11357 
 30.66         10634 
 30.68         9455 
 30.7          7985 
 30.72         6345 
 30.74         4777 
 30.76         3605 
 30.78         2567 
 30.8          1839 
 30.82         1405 
 30.84         981 
 30.86         806 
 30.88         651 
 30.9          553 
 30.92         510 
 30.94         412 
 30.96         393 
 30.98         338 
 31            329 
 31.02         282 
 31.04         279 
 31.06         286 
 31.08         275 
 31.1          231 
 31.12         236 
 31.14         231 
 31.16         227 
 31.18         218 
 31.2          215 
 31.22         214 
 31.24         216 
 31.26         209 
 31.28         208 
 31.3          208 
 31.32         197 
 31.34         197 
 31.36         182 
 31.38         199 
 31.4          171 
 31.42         179 
 31.44         171 
 31.46         178 
 31.48         154 
 31.5          146 
 31.52         168 
 31.54         147 
 31.56         148 
 31.58         149 
 31.6          147 
 31.62         123 
 31.64         133 
 31.66         123 
 31.68         119 
 31.7          122 
 31.72         100 
 31.74         146 
 31.76         118 
 31.78         128 
 31.8          124 
 31.82         126 
 31.84         135 
 31.86         113 
 31.88         120 
 31.9          140 
 31.92         126 
 31.94         129 
 31.96         134 
 31.98         143 
 32            121 
 32.02         126 
 32.04         129 
 32.06         120 
 32.08         141 
 32.1          157 
 32.12         142 
 32.14         156 
 32.16         133 
 32.18         128 
 32.2          150 
 32.22         146 
 32.24         129 
 32.26         142 
 32.28         119 
 32.3          138 
 32.32         130 
 32.34         130 
 32.36         152 
 32.38         107 
 32.4          134 
 32.42         120 
 32.44         113 
 32.46         119 
 32.48         124 
 32.5          113 
 32.52         104 
 32.54         117 
 32.56         122 
 32.58         139 
 32.6          116 
 32.62         131 
 32.64         121 
 32.66         119 
 32.68         115 
 32.7          96 
 32.72         121 
 32.74         104 
 32.76         144 
 32.78         127 
 32.8          107 
 32.82         112 
 32.84         112 
 32.86         136 
 32.88         118 
 32.9          133 
 32.92         115 
 32.94         131 
 32.96         119 
 32.98         122 
 33            136 
 33.02         139 
 33.04         160 
 33.06         137 
 33.08         137 
 33.1          156 
 33.12         134 
 33.14         178 
 33.16         157 
 33.18         186 
 33.2          170 
 33.22         192 
 33.24         221 
 33.26         245 
 33.28         252 
 33.3          309 
 33.32         373 
 33.34         412 
 33.36         463 
 33.38         573 
 33.4          660 
 33.42         886 
 33.44         1048 
 33.46         1326 
 33.48         1618 
 33.5          2047 
 33.52         2404 
 33.54         2768 
 33.56         3206 
 33.58         3377 
 33.6          3540 
 33.62         3512 
 33.64         3417 
 33.66         3023 
 33.68         2762 
 33.7          2298 
 33.72         1892 
 33.74         1588 
 33.76         1268 
 33.78         954 
 33.8          804 
 33.82         656 
 33.84         638 
 33.86         582 
 33.88         609 
 33.9          723 
 33.92         770 
 33.94         970 
 33.96         1155 
 33.98         1427 
 34            1822 
 34.02         2229 
 34.04         2918 
 34.06         3559 
 34.08         4590 
 34.1          5548 
 34.12         6301 
 34.14         6933 
 34.16         7147 
 34.18         7313 
 34.2          6995 
 34.22         6286 
 34.24         5594 
 34.26         4569 
 34.28         3823 
 34.3          3029 
 34.32         2344 
 34.34         1705 
 34.36         1312 
 34.38         981 
 34.4          714 
 34.42         570 
 34.44         456 
 34.46         373 
 34.48         315 
 34.5          299 
 34.52         251 
 34.54         209 
 34.56         242 
 34.58         193 
 34.6          206 
 34.62         203 
 34.64         178 
 34.66         176 
 34.68         141 
 34.7          158 
 34.72         141 
 34.74         141 
 34.76         135 
 34.78         115 
 34.8          136 
 34.82         136 
 34.84         140 
 34.86         138 
 34.88         128 
 34.9          127 
 34.92         115 
 34.94         143 
 34.96         141 
 34.98         125 
 35            109 
 35.02         118 
 35.04         117 
 35.06         94 
 35.08         114 
 35.1          115 
 35.12         124 
 35.14         120 
 35.16         105 
 35.18         123 
 35.2          120 
 35.22         121 
 35.24         107 
 35.26         138 
 35.28         113 
 35.3          131 
 35.32         138 
 35.34         129 
 35.36         140 
 35.38         177 
 35.4          152 
 35.42         138 
 35.44         165 
 35.46         161 
 35.48         174 
 35.5          178 
 35.52         199 
 35.54         181 
 35.56         199 
 35.58         190 
 35.6          212 
 35.62         202 
 35.64         209 
 35.66         200 
 35.68         190 
 35.7          211 
 35.72         211 
 35.74         192 
 35.76         196 
 35.78         199 
 35.8          185 
 35.82         190 
 35.84         214 
 35.86         182 
 35.88         185 
 35.9          200 
 35.92         210 
 35.94         243 
 35.96         250 
 35.98         244 
 36            260 
 36.02         225 
 36.04         251 
 36.06         210 
 36.08         209 
 36.1          222 
 36.12         223 
 36.14         187 
 36.16         204 
 36.18         213 
 36.2          210 
 36.22         195 
 36.24         178 
 36.26         177 
 36.28         157 
 36.3          179 
 36.32         148 
 36.34         147 
 36.36         127 
 36.38         122 
 36.4          142 
 36.42         136 
 36.44         112 
 36.46         102 
 36.48         96 
 36.5          112 
 36.52         109 
 36.54         122 
 36.56         106 
 36.58         118 
 36.6          121 
 36.62         102 
 36.64         119 
 36.66         107 
 36.68         100 
 36.7          119 
 36.72         109 
 36.74         97 
 36.76         102 
 36.78         114 
 36.8          111 
 36.82         106 
 36.84         96 
 36.86         90 
 36.88         129 
 36.9          117 
 36.92         128 
 36.94         117 
 36.96         121 
 36.98         145 
 37            133 
 37.02         111 
 37.04         128 
 37.06         142 
 37.08         131 
 37.1          135 
 37.12         132 
 37.14         143 
 37.16         168 
 37.18         188 
 37.2          171 
 37.22         195 
 37.24         221 
 37.26         215 
 37.28         245 
 37.3          267 
 37.32         258 
 37.34         267 
 37.36         309 
 37.38         298 
 37.4          314 
 37.42         304 
 37.44         302 
 37.46         385 
 37.48         416 
 37.5          460 
 37.52         529 
 37.54         607 
 37.56         774 
 37.58         948 
 37.6          1219 
 37.62         1526 
 37.64         1945 
 37.66         2415 
 37.68         3052 
 37.7          3602 
 37.72         4341 
 37.74         4680 
 37.76         5287 
 37.78         5688 
 37.8          5991 
 37.82         6083 
 37.84         6052 
 37.86         5994 
 37.88         5811 
 37.9          5414 
 37.92         5180 
 37.94         4587 
 37.96         4055 
 37.98         3521 
 38            2957 
 38.02         2519 
 38.04         2075 
 38.06         1637 
 38.08         1322 
 38.1          996 
 38.12         864 
 38.14         692 
 38.16         579 
 38.18         539 
 38.2          442 
 38.22         354 
 38.24         338 
 38.26         338 
 38.28         286 
 38.3          277 
 38.32         261 
 38.34         254 
 38.36         213 
 38.38         220 
 38.4          208 
 38.42         220 
 38.44         196 
 38.46         191 
 38.48         183 
 38.5          152 
 38.52         141 
 38.54         156 
 38.56         144 
 38.58         136 
 38.6          144 
 38.62         139 
 38.64         138 
 38.66         111 
 38.68         116 
 38.7          119 
 38.72         125 
 38.74         124 
 38.76         112 
 38.78         136 
 38.8          96 
 38.82         128 
 38.84         115 
 38.86         114 
 38.88         91 
 38.9          98 
 38.92         105 
 38.94         108 
 38.96         88 
 38.98         112 
 39            104 
 39.02         104 
 39.04         97 
 39.06         105 
 39.08         116 
 39.1          103 
 39.12         113 
 39.14         114 
 39.16         121 
 39.18         122 
 39.2          120 
 39.22         129 
 39.24         134 
 39.26         116 
 39.28         150 
 39.3          133 
 39.32         133 
 39.34         143 
 39.36         132 
 39.38         154 
 39.4          134 
 39.42         158 
 39.44         170 
 39.46         152 
 39.48         155 
 39.5          163 
 39.52         172 
 39.54         145 
 39.56         147 
 39.58         185 
 39.6          159 
 39.62         165 
 39.64         140 
 39.66         144 
 39.68         159 
 39.7          147 
 39.72         152 
 39.74         125 
 39.76         151 
 39.78         151 
 39.8          139 
 39.82         139 
 39.84         159 
 39.86         133 
 39.88         132 
 39.9          166 
 39.92         127 
 39.94         138 
 39.96         171 
 39.98         172 
 40            165 
 40.02         163 
 40.04         151 
 40.06         177 
 40.08         227 
 40.1          202 
 40.12         230 
 40.14         232 
 40.16         248 
 40.18         293 
 40.2          249 
 40.22         310 
 40.24         298 
 40.26         281 
 40.28         272 
 40.3          243 
 40.32         194 
 40.34         226 
 40.36         195 
 40.38         174 
 40.4          169 
 40.42         148 
 40.44         124 
 40.46         139 
 40.48         118 
 40.5          136 
 40.52         102 
 40.54         125 
 40.56         103 
 40.58         105 
 40.6          111 
 40.62         127 
 40.64         119 
 40.66         87 
 40.68         126 
 40.7          101 
 40.72         105 
 40.74         98 
 40.76         93 
 40.78         88 
 40.8          112 
 40.82         117 
 40.84         115 
 40.86         88 
 40.88         114 
 40.9          102 
 40.92         125 
 40.94         114 
 40.96         124 
 40.98         129 
 41            115 
 41.02         100 
 41.04         128 
 41.06         119 
 41.08         122 
 41.1          98 
 41.12         105 
 41.14         109 
 41.16         107 
 41.18         112 
 41.2          114 
 41.22         111 
 41.24         102 
 41.26         112 
 41.28         102 
 41.3          125 
 41.32         95 
 41.34         102 
 41.36         116 
 41.38         113 
 41.4          118 
 41.42         107 
 41.44         112 
 41.46         122 
 41.48         122 
 41.5          114 
 41.52         117 
 41.54         132 
 41.56         140 
 41.58         126 
 41.6          164 
 41.62         147 
 41.64         146 
 41.66         148 
 41.68         159 
 41.7          161 
 41.72         181 
 41.74         174 
 41.76         177 
 41.78         153 
 41.8          162 
 41.82         169 
 41.84         185 
 41.86         174 
 41.88         180 
 41.9          169 
 41.92         147 
 41.94         142 
 41.96         184 
 41.98         123 
 42            154 
 42.02         154 
 42.04         140 
 42.06         145 
 42.08         127 
 42.1          126 
 42.12         130 
 42.14         131 
 42.16         112 
 42.18         122 
 42.2          112 
 42.22         127 
 42.24         116 
 42.26         116 
 42.28         118 
 42.3          113 
 42.32         95 
 42.34         108 
 42.36         125 
 42.38         95 
 42.4          107 
 42.42         122 
 42.44         92 
 42.46         99 
 42.48         130 
 42.5          103 
 42.52         83 
 42.54         106 
 42.56         116 
 42.58         97 
 42.6          99 
 42.62         107 
 42.64         110 
 42.66         105 
 42.68         85 
 42.7          98 
 42.72         104 
 42.74         104 
 42.76         107 
 42.78         90 
 42.8          106 
 42.82         98 
 42.84         106 
 42.86         119 
 42.88         111 
 42.9          111 
 42.92         101 
 42.94         116 
 42.96         118 
 42.98         111 
 43            96 
 43.02         126 
 43.04         119 
 43.06         122 
 43.08         147 
 43.1          113 
 43.12         113 
 43.14         133 
 43.16         117 
 43.18         152 
 43.2          134 
 43.22         147 
 43.24         159 
 43.26         170 
 43.28         192 
 43.3          199 
 43.32         242 
 43.34         283 
 43.36         286 
 43.38         378 
 43.4          445 
 43.42         510 
 43.44         594 
 43.46         667 
 43.48         735 
 43.5          747 
 43.52         765 
 43.54         759 
 43.56         720 
 43.58         715 
 43.6          646 
 43.62         610 
 43.64         503 
 43.66         434 
 43.68         386 
 43.7          363 
 43.72         306 
 43.74         273 
 43.76         226 
 43.78         229 
 43.8          188 
 43.82         157 
 43.84         158 
 43.86         163 
 43.88         179 
 43.9          146 
 43.92         179 
 43.94         173 
 43.96         150 
 43.98         142 
 44            180 
 44.02         157 
 44.04         187 
 44.06         149 
 44.08         172 
 44.1          168 
 44.12         155 
 44.14         139 
 44.16         139 
 44.18         131 
 44.2          124 
 44.22         131 
 44.24         112 
 44.26         103 
 44.28         128 
 44.3          94 
 44.32         116 
 44.34         122 
 44.36         105 
 44.38         104 
 44.4          105 
 44.42         91 
 44.44         104 
 44.46         88 
 44.48         88 
 44.5          112 
 44.52         114 
 44.54         113 
 44.56         109 
 44.58         102 
 44.6          116 
 44.62         101 
 44.64         147 
 44.66         109 
 44.68         112 
 44.7          109 
 44.72         104 
 44.74         109 
 44.76         118 
 44.78         111 
 44.8          103 
 44.82         124 
 44.84         122 
 44.86         117 
 44.88         112 
 44.9          137 
 44.92         111 
 44.94         115 
 44.96         147 
 44.98         130 
 45            116 
 45.02         140 
 45.04         129 
 45.06         115 
 45.08         122 
 45.1          138 
 45.12         142 
 45.14         136 
 45.16         158 
 45.18         149 
 45.2          128 
 45.22         185 
 45.24         174 
 45.26         187 
 45.28         223 
 45.3          243 
 45.32         286 
 45.34         368 
 45.36         384 
 45.38         511 
 45.4          573 
 45.42         701 
 45.44         756 
 45.46         797 
 45.48         940 
 45.5          922 
 45.52         991 
 45.54         1064 
 45.56         966 
 45.58         1007 
 45.6          891 
 45.62         864 
 45.64         893 
 45.66         771 
 45.68         789 
 45.7          745 
 45.72         761 
 45.74         751 
 45.76         710 
 45.78         647 
 45.8          632 
 45.82         605 
 45.84         540 
 45.86         558 
 45.88         578 
 45.9          526 
 45.92         646 
 45.94         649 
 45.96         702 
 45.98         740 
 46            760 
 46.02         858 
 46.04         879 
 46.06         908 
 46.08         888 
 46.1          896 
 46.12         935 
 46.14         764 
 46.16         700 
 46.18         676 
 46.2          584 
 46.22         508 
 46.24         480 
 46.26         451 
 46.28         353 
 46.3          345 
 46.32         279 
 46.34         261 
 46.36         242 
 46.38         248 
 46.4          222 
 46.42         224 
 46.44         252 
 46.46         256 
 46.48         298 
 46.5          323 
 46.52         375 
 46.54         401 
 46.56         348 
 46.58         400 
 46.6          418 
 46.62         413 
 46.64         423 
 46.66         422 
 46.68         485 
 46.7          466 
 46.72         527 
 46.74         568 
 46.76         549 
 46.78         565 
 46.8          541 
 46.82         549 
 46.84         550 
 46.86         479 
 46.88         464 
 46.9          390 
 46.92         373 
 46.94         302 
 46.96         263 
 46.98         265 
 47            235 
 47.02         189 
 47.04         167 
 47.06         177 
 47.08         146 
 47.1          133 
 47.12         143 
 47.14         125 
 47.16         114 
 47.18         110 
 47.2          102 
 47.22         103 
 47.24         112 
 47.26         123 
 47.28         89 
 47.3          109 
 47.32         87 
 47.34         103 
 47.36         98 
 47.38         92 
 47.4          90 
 47.42         97 
 47.44         110 
 47.46         80 
 47.48         93 
 47.5          106 
 47.52         103 
 47.54         118 
 47.56         106 
 47.58         100 
 47.6          116 
 47.62         104 
 47.64         105 
 47.66         102 
 47.68         118 
 47.7          103 
 47.72         127 
 47.74         99 
 47.76         114 
 47.78         120 
 47.8          100 
 47.82         105 
 47.84         107 
 47.86         122 
 47.88         111 
 47.9          100 
 47.92         84 
 47.94         104 
 47.96         111 
 47.98         92 
 48            109 
 48.02         102 
 48.04         101 
 48.06         94 
 48.08         100 
 48.1          110 
 48.12         87 
 48.14         109 
 48.16         102 
 48.18         133 
 48.2          122 
 48.22         122 
 48.24         122 
 48.26         126 
 48.28         136 
 48.3          123 
 48.32         125 
 48.34         132 
 48.36         157 
 48.38         142 
 48.4          158 
 48.42         133 
 48.44         159 
 48.46         151 
 48.48         173 
 48.5          168 
 48.52         189 
 48.54         174 
 48.56         161 
 48.58         191 
 48.6          183 
 48.62         213 
 48.64         247 
 48.66         251 
 48.68         231 
 48.7          276 
 48.72         294 
 48.74         317 
 48.76         314 
 48.78         419 
 48.8          461 
 48.82         534 
 48.84         625 
 48.86         773 
 48.88         1043 
 48.9          1183 
 48.92         1575 
 48.94         1846 
 48.96         2221 
 48.98         2482 
 49            2863 
 49.02         3149 
 49.04         3272 
 49.06         3316 
 49.08         3347 
 49.1          3277 
 49.12         3115 
 49.14         3020 
 49.16         2663 
 49.18         2463 
 49.2          2237 
 49.22         2117 
 49.24         2012 
 49.26         1897 
 49.28         1827 
 49.3          1952 
 49.32         2030 
 49.34         1958 
 49.36         2035 
 49.38         2124 
 49.4          1992 
 49.42         1911 
 49.44         1839 
 49.46         1816 
 49.48         1577 
 49.5          1452 
 49.52         1362 
 49.54         1152 
 49.56         987 
 49.58         755 
 49.6          739 
 49.62         567 
 49.64         458 
 49.66         387 
 49.68         315 
 49.7          265 
 49.72         255 
 49.74         235 
 49.76         205 
 49.78         157 
 49.8          170 
 49.82         189 
 49.84         158 
 49.86         138 
 49.88         136 
 49.9          128 
 49.92         142 
 49.94         143 
 49.96         136 
 49.98         127 
 50            115 
 50.02         121 
 50.04         119 
 50.06         134 
 50.08         125 
 50.1          130 
 50.12         98 
 50.14         107 
 50.16         101 
 50.18         105 
 50.2          116 
 50.22         101 
 50.24         105 
 50.26         99 
 50.28         122 
 50.3          100 
 50.32         122 
 50.34         90 
 50.36         119 
 50.38         104 
 50.4          99 
 50.42         106 
 50.44         103 
 50.46         109 
 50.48         114 
 50.5          105 
 50.52         116 
 50.54         96 
 50.56         91 
 50.58         104 
 50.6          94 
 50.62         94 
 50.64         84 
 50.66         106 
 50.68         123 
 50.7          113 
 50.72         97 
 50.74         108 
 50.76         102 
 50.78         111 
 50.8          132 
 50.82         106 
 50.84         125 
 50.86         123 
 50.88         141 
 50.9          134 
 50.92         123 
 50.94         136 
 50.96         161 
 50.98         165 
 51            168 
 51.02         180 
 51.04         220 
 51.06         220 
 51.08         254 
 51.1          270 
 51.12         317 
 51.14         394 
 51.16         432 
 51.18         465 
 51.2          543 
 51.22         639 
 51.24         674 
 51.26         798 
 51.28         804 
 51.3          909 
 51.32         849 
 51.34         916 
 51.36         922 
 51.38         909 
 51.4          943 
 51.42         908 
 51.44         845 
 51.46         789 
 51.48         762 
 51.5          703 
 51.52         641 
 51.54         638 
 51.56         611 
 51.58         637 
 51.6          629 
 51.62         634 
 51.64         760 
 51.66         860 
 51.68         1020 
 51.7          1205 
 51.72         1358 
 51.74         1680 
 51.76         1901 
 51.78         2079 
 51.8          2309 
 51.82         2523 
 51.84         2607 
 51.86         2613 
 51.88         2472 
 51.9          2518 
 51.92         2540 
 51.94         2343 
 51.96         2304 
 51.98         2102 
 52            1966 
 52.02         1853 
 52.04         1695 
 52.06         1574 
 52.08         1402 
 52.1          1280 
 52.12         1142 
 52.14         1041 
 52.16         881 
 52.18         793 
 52.2          754 
 52.22         588 
 52.24         566 
 52.26         476 
 52.28         439 
 52.3          355 
 52.32         330 
 52.34         254 
 52.36         224 
 52.38         209 
 52.4          198 
 52.42         184 
 52.44         175 
 52.46         178 
 52.48         130 
 52.5          129 
 52.52         120 
 52.54         124 
 52.56         113 
 52.58         101 
 52.6          111 
 52.62         136 
 52.64         111 
 52.66         120 
 52.68         106 
 52.7          118 
 52.72         134 
 52.74         107 
 52.76         121 
 52.78         126 
 52.8          106 
 52.82         111 
 52.84         114 
 52.86         131 
 52.88         100 
 52.9          102 
 52.92         123 
 52.94         130 
 52.96         92 
 52.98         132 
 53            114 
 53.02         119 
 53.04         124 
 53.06         126 
 53.08         95 
 53.1          113 
 53.12         123 
 53.14         120 
 53.16         125 
 53.18         131 
 53.2          138 
 53.22         154 
 53.24         141 
 53.26         157 
 53.28         147 
 53.3          156 
 53.32         163 
 53.34         159 
 53.36         194 
 53.38         218 
 53.4          224 
 53.42         224 
 53.44         228 
 53.46         256 
 53.48         264 
 53.5          291 
 53.52         328 
 53.54         317 
 53.56         325 
 53.58         330 
 53.6          313 
 53.62         339 
 53.64         318 
 53.66         337 
 53.68         284 
 53.7          320 
 53.72         283 
 53.74         277 
 53.76         262 
 53.78         249 
 53.8          236 
 53.82         223 
 53.84         217 
 53.86         221 
 53.88         184 
 53.9          141 
 53.92         189 
 53.94         143 
 53.96         147 
 53.98         150 
 54            130 
 54.02         127 
 54.04         132 
 54.06         129 
 54.08         118 
 54.1          137 
 54.12         105 
 54.14         120 
 54.16         92 
 54.18         86 
 54.2          102 
 54.22         99 
 54.24         95 
 54.26         110 
 54.28         107 
 54.3          90 
 54.32         105 
 54.34         104 
 54.36         114 
 54.38         106 
 54.4          101 
 54.42         120 
 54.44         112 
 54.46         104 
 54.48         113 
 54.5          122 
 54.52         118 
 54.54         115 
 54.56         108 
 54.58         123 
 54.6          112 
 54.62         108 
 54.64         115 
 54.66         99 
 54.68         100 
 54.7          107 
 54.72         121 
 54.74         88 
 54.76         108 
 54.78         77 
 54.8          108 
 54.82         100 
 54.84         92 
 54.86         103 
 54.88         105 
 54.9          96 
 54.92         94 
 54.94         89 
 54.96         96 
 54.98         85 
 55            98 
 55.02         80 
 55.04         114 
 55.06         117 
 55.08         94 
 55.1          90 
 55.12         90 
 55.14         84 
 55.16         90 
 55.18         89 
 55.2          90 
 55.22         104 
 55.24         106 
 55.26         95 
 55.28         118 
 55.3          97 
 55.32         107 
 55.34         99 
 55.36         128 
 55.38         83 
 55.4          130 
 55.42         100 
 55.44         112 
 55.46         106 
 55.48         116 
 55.5          114 
 55.52         114 
 55.54         119 
 55.56         130 
 55.58         123 
 55.6          131 
 55.62         113 
 55.64         136 
 55.66         140 
 55.68         166 
 55.7          143 
 55.72         147 
 55.74         155 
 55.76         172 
 55.78         165 
 55.8          188 
 55.82         205 
 55.84         220 
 55.86         274 
 55.88         296 
 55.9          338 
 55.92         412 
 55.94         478 
 55.96         591 
 55.98         663 
 56            722 
 56.02         841 
 56.04         986 
 56.06         994 
 56.08         977 
 56.1          1087 
 56.12         1135 
 56.14         1176 
 56.16         1245 
 56.18         1327 
 56.2          1433 
 56.22         1604 
 56.24         1751 
 56.26         1759 
 56.28         1918 
 56.3          1981 
 56.32         2041 
 56.34         2128 
 56.36         2047 
 56.38         2031 
 56.4          1966 
 56.42         1913 
 56.44         1793 
 56.46         1639 
 56.48         1502 
 56.5          1408 
 56.52         1248 
 56.54         1063 
 56.56         992 
 56.58         791 
 56.6          710 
 56.62         587 
 56.64         494 
 56.66         440 
 56.68         349 
 56.7          317 
 56.72         249 
 56.74         253 
 56.76         221 
 56.78         216 
 56.8          177 
 56.82         169 
 56.84         157 
 56.86         181 
 56.88         150 
 56.9          138 
 56.92         146 
 56.94         145 
 56.96         151 
 56.98         134 
 57            123 
 57.02         117 
 57.04         120 
 57.06         112 
 57.08         122 
 57.1          128 
 57.12         117 
 57.14         109 
 57.16         109 
 57.18         127 
 57.2          103 
 57.22         80 
 57.24         103 
 57.26         80 
 57.28         106 
 57.3          118 
 57.32         96 
 57.34         105 
 57.36         100 
 57.38         92 
 57.4          92 
 57.42         111 
 57.44         102 
 57.46         85 
 57.48         90 
 57.5          100 
 57.52         87 
 57.54         106 
 57.56         103 
 57.58         85 
 57.6          88 
 57.62         79 
 57.64         95 
 57.66         90 
 57.68         104 
 57.7          101 
 57.72         98 
 57.74         96 
 57.76         109 
 57.78         100 
 57.8          103 
 57.82         92 
 57.84         81 
 57.86         95 
 57.88         101 
 57.9          121 
 57.92         119 
 57.94         115 
 57.96         94 
 57.98         111 
 58            116 
 58.02         110 
 58.04         118 
 58.06         148 
 58.08         151 
 58.1          134 
 58.12         143 
 58.14         175 
 58.16         185 
 58.18         187 
 58.2          198 
 58.22         235 
 58.24         265 
 58.26         291 
 58.28         305 
 58.3          343 
 58.32         329 
 58.34         397 
 58.36         420 
 58.38         430 
 58.4          426 
 58.42         485 
 58.44         458 
 58.46         496 
 58.48         454 
 58.5          528 
 58.52         501 
 58.54         505 
 58.56         459 
 58.58         470 
 58.6          521 
 58.62         472 
 58.64         447 
 58.66         502 
 58.68         476 
 58.7          549 
 58.72         548 
 58.74         660 
 58.76         684 
 58.78         757 
 58.8          923 
 58.82         1090 
 58.84         1229 
 58.86         1416 
 58.88         1469 
 58.9          1679 
 58.92         1733 
 58.94         1806 
 58.96         1832 
 58.98         1900 
 59            1894 
 59.02         1974 
 59.04         1974 
 59.06         2056 
 59.08         2162 
 59.1          2314 
 59.12         2425 
 59.14         2518 
 59.16         2801 
 59.18         2913 
 59.2          3068 
 59.22         3146 
 59.24         3505 
 59.26         3450 
 59.28         3559 
 59.3          3550 
 59.32         3559 
 59.34         3521 
 59.36         3374 
 59.38         3274 
 59.4          3173 
 59.42         2935 
 59.44         2614 
 59.46         2428 
 59.48         2274 
 59.5          2060 
 59.52         1712 
 59.54         1507 
 59.56         1315 
 59.58         1159 
 59.6          995 
 59.62         827 
 59.64         783 
 59.66         606 
 59.68         502 
 59.7          438 
 59.72         387 
 59.74         341 
 59.76         314 
 59.78         248 
 59.8          260 
 59.82         214 
 59.84         180 
 59.86         184 
 59.88         190 
 59.9          168 
 59.92         156 
 59.94         151 
 59.96         140 
 59.98         165 
 60            161 
 60.02         159 
 60.04         139 
 60.06         117 
 60.08         132 
 60.1          139 
 60.12         161 
 60.14         140 
 60.16         148 
 60.18         126 
 60.2          125 
 60.22         128 
 60.24         126 
 60.26         148 
 60.28         151 
 60.3          127 
 60.32         116 
 60.34         146 
 60.36         150 
 60.38         153 
 60.4          169 
 60.42         187 
 60.44         188 
 60.46         215 
 60.48         198 
 60.5          256 
 60.52         291 
 60.54         275 
 60.56         268 
 60.58         269 
 60.6          314 
 60.62         310 
 60.64         291 
 60.66         293 
 60.68         327 
 60.7          335 
 60.72         367 
 60.74         408 
 60.76         439 
 60.78         447 
 60.8          495 
 60.82         581 
 60.84         627 
 60.86         637 
 60.88         696 
 60.9          758 
 60.92         777 
 60.94         837 
 60.96         877 
 60.98         824 
 61            815 
 61.02         814 
 61.04         813 
 61.06         784 
 61.08         738 
 61.1          662 
 61.12         615 
 61.14         608 
 61.16         530 
 61.18         424 
 61.2          446 
 61.22         381 
 61.24         368 
 61.26         338 
 61.28         290 
 61.3          247 
 61.32         253 
 61.34         212 
 61.36         210 
 61.38         165 
 61.4          147 
 61.42         145 
 61.44         136 
 61.46         152 
 61.48         117 
 61.5          130 
 61.52         107 
 61.54         133 
 61.56         116 
 61.58         110 
 61.6          114 
 61.62         114 
 61.64         124 
 61.66         112 
 61.68         117 
 61.7          129 
 61.72         126 
 61.74         113 
 61.76         115 
 61.78         128 
 61.8          120 
 61.82         123 
 61.84         100 
 61.86         114 
 61.88         112 
 61.9          110 
 61.92         85 
 61.94         125 
 61.96         99 
 61.98         91 
 62            114 
 62.02         88 
 62.04         108 
 62.06         111 
 62.08         101 
 62.1          113 
 62.12         118 
 62.14         108 
 62.16         92 
 62.18         97 
 62.2          94 
 62.22         107 
 62.24         92 
 62.26         88 
 62.28         102 
 62.3          81 
 62.32         89 
 62.34         95 
 62.36         96 
 62.38         87 
 62.4          73 
 62.42         98 
 62.44         88 
 62.46         89 
 62.48         80 
 62.5          72 
 62.52         83 
 62.54         92 
 62.56         83 
 62.58         92 
 62.6          91 
 62.62         99 
 62.64         108 
 62.66         94 
 62.68         83 
 62.7          87 
 62.72         93 
 62.74         101 
 62.76         81 
 62.78         95 
 62.8          88 
 62.82         89 
 62.84         98 
 62.86         99 
 62.88         101 
 62.9          115 
 62.92         109 
 62.94         94 
 62.96         95 
 62.98         101 
 63            101 
 63.02         107 
 63.04         106 
 63.06         106 
 63.08         102 
 63.1          109 
 63.12         130 
 63.14         125 
 63.16         152 
 63.18         160 
 63.2          135 
 63.22         170 
 63.24         159 
 63.26         172 
 63.28         217 
 63.3          245 
 63.32         302 
 63.34         382 
 63.36         447 
 63.38         506 
 63.4          548 
 63.42         625 
 63.44         722 
 63.46         759 
 63.48         773 
 63.5          741 
 63.52         743 
 63.54         755 
 63.56         734 
 63.58         684 
 63.6          683 
 63.62         642 
 63.64         528 
 63.66         559 
 63.68         522 
 63.7          478 
 63.72         420 
 63.74         404 
 63.76         336 
 63.78         283 
 63.8          230 
 63.82         230 
 63.84         204 
 63.86         195 
 63.88         188 
 63.9          161 
 63.92         161 
 63.94         168 
 63.96         137 
 63.98         147 
 64            119 
 64.02         119 
 64.04         119 
 64.06         125 
 64.08         116 
 64.1          114 
 64.12         119 
 64.14         103 
 64.16         113 
 64.18         125 
 64.2          130 
 64.22         125 
 64.24         107 
 64.26         116 
 64.28         114 
 64.3          97 
 64.32         115 
 64.34         132 
 64.36         98 
 64.38         119 
 64.4          128 
 64.42         131 
 64.44         108 
 64.46         126 
 64.48         129 
 64.5          127 
 64.52         138 
 64.54         156 
 64.56         156 
 64.58         169 
 64.6          167 
 64.62         168 
 64.64         172 
 64.66         203 
 64.68         211 
 64.7          238 
 64.72         218 
 64.74         273 
 64.76         307 
 64.78         305 
 64.8          311 
 64.82         313 
 64.84         372 
 64.86         354 
 64.88         343 
 64.9          384 
 64.92         408 
 64.94         396 
 64.96         381 
 64.98         385 
 65            394 
 65.02         424 
 65.04         428 
 65.06         438 
 65.08         448 
 65.1          469 
 65.12         473 
 65.14         517 
 65.16         504 
 65.18         543 
 65.2          531 
 65.22         585 
 65.24         639 
 65.26         581 
 65.28         671 
 65.3          758 
 65.32         818 
 65.34         913 
 65.36         954 
 65.38         1036 
 65.4          1175 
 65.42         1279 
 65.44         1359 
 65.46         1432 
 65.48         1453 
 65.5          1393 
 65.52         1384 
 65.54         1367 
 65.56         1309 
 65.58         1357 
 65.6          1269 
 65.62         1277 
 65.64         1178 
 65.66         1184 
 65.68         1202 
 65.7          1224 
 65.72         1275 
 65.74         1188 
 65.76         1271 
 65.78         1336 
 65.8          1263 
 65.82         1317 
 65.84         1283 
 65.86         1272 
 65.88         1300 
 65.9          1237 
 65.92         1236 
 65.94         1176 
 65.96         1130 
 65.98         1005 
 66            984 
 66.02         904 
 66.04         852 
 66.06         812 
 66.08         693 
 66.1          667 
 66.12         585 
 66.14         530 
 66.16         468 
 66.18         431 
 66.2          403 
 66.22         312 
 66.24         300 
 66.26         249 
 66.28         255 
 66.3          210 
 66.32         217 
 66.34         186 
 66.36         141 
 66.38         169 
 66.4          146 
 66.42         162 
 66.44         169 
 66.46         132 
 66.48         140 
 66.5          123 
 66.52         142 
 66.54         127 
 66.56         139 
 66.58         140 
 66.6          139 
 66.62         116 
 66.64         120 
 66.66         135 
 66.68         118 
 66.7          122 
 66.72         129 
 66.74         113 
 66.76         131 
 66.78         118 
 66.8          131 
 66.82         122 
 66.84         125 
 66.86         116 
 66.88         122 
 66.9          128 
 66.92         127 
 66.94         97 
 66.96         143 
 66.98         124 
 67            138 
 67.02         135 
 67.04         114 
 67.06         130 
 67.08         130 
 67.1          140 
 67.12         139 
 67.14         126 
 67.16         110 
 67.18         113 
 67.2          122 
 67.22         126 
 67.24         152 
 67.26         134 
 67.28         127 
 67.3          121 
 67.32         130 
 67.34         119 
 67.36         122 
 67.38         136 
 67.4          128 
 67.42         129 
 67.44         137 
 67.46         137 
 67.48         131 
 67.5          129 
 67.52         149 
 67.54         113 
 67.56         142 
 67.58         135 
 67.6          171 
 67.62         158 
 67.64         171 
 67.66         190 
 67.68         205 
 67.7          240 
 67.72         279 
 67.74         307 
 67.76         342 
 67.78         319 
 67.8          354 
 67.82         421 
 67.84         408 
 67.86         518 
 67.88         519 
 67.9          526 
 67.92         521 
 67.94         584 
 67.96         640 
 67.98         728 
 68            725 
 68.02         759 
 68.04         836 
 68.06         875 
 68.08         921 
 68.1          954 
 68.12         981 
 68.14         987 
 68.16         1057 
 68.18         1087 
 68.2          1037 
 68.22         1053 
 68.24         1070 
 68.26         1056 
 68.28         1005 
 68.3          980 
 68.32         950 
 68.34         917 
 68.36         814 
 68.38         764 
 68.4          688 
 68.42         646 
 68.44         635 
 68.46         561 
 68.48         487 
 68.5          466 
 68.52         405 
 68.54         375 
 68.56         339 
 68.58         313 
 68.6          303 
 68.62         279 
 68.64         228 
 68.66         237 
 68.68         237 
 68.7          217 
 68.72         196 
 68.74         197 
 68.76         213 
 68.78         211 
 68.8          202 
 68.82         220 
 68.84         261 
 68.86         233 
 68.88         270 
 68.9          278 
 68.92         301 
 68.94         309 
 68.96         350 
 68.98         364 
 69            420 
 69.02         453 
 69.04         451 
 69.06         528 
 69.08         563 
 69.1          552 
 69.12         626 
 69.14         702 
 69.16         687 
 69.18         768 
 69.2          726 
 69.22         777 
 69.24         757 
 69.26         773 
 69.28         778 
 69.3          756 
 69.32         668 
 69.34         715 
 69.36         723 
 69.38         683 
 69.4          662 
 69.42         656 
 69.44         593 
 69.46         556 
 69.48         554 
 69.5          503 
 69.52         480 
 69.54         501 
 69.56         475 
 69.58         495 
 69.6          497 
 69.62         483 
 69.64         537 
 69.66         658 
 69.68         603 
 69.7          635 
 69.72         698 
 69.74         694 
 69.76         732 
 69.78         752 
 69.8          732 
 69.82         771 
 69.84         834 
 69.86         708 
 69.88         710 
 69.9          697 
 69.92         629 
 69.94         607 
 69.96         522 
 69.98         521 
 70            546 
 70.02         486 
 70.04         425 
 70.06         433 
 70.08         337 
 70.1          329 
 70.12         293 
 70.14         271 
 70.16         245 
 70.18         211 
 70.2          210 
 70.22         188 
 70.24         168 
 70.26         177 
 70.28         151 
 70.3          141 
 70.32         158 
 70.34         127 
 70.36         141 
 70.38         129 
 70.4          133 
 70.42         140 
 70.44         117 
 70.46         122 
 70.48         120 
 70.5          101 
 70.52         136 
 70.54         102 
 70.56         130 
 70.58         108 
 70.6          115 
 70.62         99 
 70.64         110 
 70.66         117 
 70.68         96 
 70.7          109 
 70.72         86 
 70.74         122 
 70.76         106 
 70.78         93 
 70.8          104 
 70.82         99 
 70.84         96 
 70.86         99 
 70.88         99 
 70.9          99 
 70.92         101 
 70.94         94 
 70.96         104 
 70.98         102 
 71            89 
 71.02         104 
 71.04         90 
 71.06         88 
 71.08         91 
 71.1          92 
 71.12         99 
 71.14         83 
 71.16         94 
 71.18         87 
 71.2          117 
 71.22         100 
 71.24         108 
 71.26         89 
 71.28         83 
 71.3          105 
 71.32         117 
 71.34         121 
 71.36         115 
 71.38         127 
 71.4          148 
 71.42         153 
 71.44         191 
 71.46         228 
 71.48         198 
 71.5          229 
 71.52         265 
 71.54         298 
 71.56         325 
 71.58         330 
 71.6          352 
 71.62         407 
 71.64         359 
 71.66         431 
 71.68         408 
 71.7          447 
 71.72         466 
 71.74         429 
 71.76         373 
 71.78         403 
 71.8          375 
 71.82         416 
 71.84         358 
 71.86         350 
 71.88         320 
 71.9          295 
 71.92         294 
 71.94         261 
 71.96         268 
 71.98         236 
 72            222 
 72.02         223 
 72.04         211 
 72.06         251 
 72.08         205 
 72.1          269 
 72.12         243 
 72.14         276 
 72.16         326 
 72.18         299 
 72.2          312 
 72.22         347 
 72.24         438 
 72.26         414 
 72.28         470 
 72.3          475 
 72.32         542 
 72.34         544 
 72.36         614 
 72.38         627 
 72.4          645 
 72.42         597 
 72.44         575 
 72.46         584 
 72.48         602 
 72.5          626 
 72.52         627 
 72.54         616 
 72.56         570 
 72.58         597 
 72.6          577 
 72.62         631 
 72.64         594 
 72.66         578 
 72.68         572 
 72.7          538 
 72.72         532 
 72.74         497 
 72.76         494 
 72.78         495 
 72.8          489 
 72.82         484 
 72.84         454 
 72.86         430 
 72.88         469 
 72.9          415 
 72.92         445 
 72.94         443 
 72.96         387 
 72.98         366 
 73            389 
 73.02         329 
 73.04         338 
 73.06         348 
 73.08         346 
 73.1          366 
 73.12         324 
 73.14         325 
 73.16         325 
 73.18         316 
 73.2          350 
 73.22         369 
 73.24         362 
 73.26         388 
 73.28         477 
 73.3          462 
 73.32         527 
 73.34         562 
 73.36         522 
 73.38         565 
 73.4          580 
 73.42         660 
 73.44         684 
 73.46         680 
 73.48         732 
 73.5          764 
 73.52         719 
 73.54         769 
 73.56         765 
 73.58         802 
 73.6          770 
 73.62         781 
 73.64         679 
 73.66         726 
 73.68         655 
 73.7          660 
 73.72         671 
 73.74         670 
 73.76         628 
 73.78         631 
 73.8          641 
 73.82         667 
 73.84         652 
 73.86         687 
 73.88         694 
 73.9          702 
 73.92         697 
 73.93999      703 
 73.96         744 
 73.98         734 
 74            689 
 74.02         709 
 74.04         727 
 74.06         726 
 74.08         671 
 74.1          675 
 74.12         649 
 74.14         632 
 74.16         628 
 74.18         550 
 74.2          541 
 74.22         515 
 74.24         455 
 74.26         495 
 74.28         439 
 74.3          395 
 74.32         391 
 74.34         349 
 74.36         337 
 74.38         313 
 74.4          260 
 74.42         268 
 74.43999      224 
 74.46         209 
 74.48         209 
 74.5          208 
 74.52         192 
 74.54         162 
 74.56         143 
 74.58         164 
 74.6          169 
 74.62         143 
 74.64         132 
 74.66         154 
 74.68         135 
 74.7          136 
 74.72         111 
 74.74         116 
 74.76         102 
 74.78         125 
 74.8          104 
 74.82         81 
 74.84         102 
 74.86         104 
 74.88         113 
 74.9          93 
 74.92         84 
 74.93999      88 
 74.96         89 
 74.98         95 
 75            99 
