LAGP 800°C Ofen  Original Data
 3151 
 12            488 
 12.02         475 
 12.04         455 
 12.06         474 
 12.08         446 
 12.1          483 
 12.12         443 
 12.14         457 
 12.16         480 
 12.18         479 
 12.2          446 
 12.22         489 
 12.24         519 
 12.26         490 
 12.28         478 
 12.3          501 
 12.32         481 
 12.34         477 
 12.36         471 
 12.38         481 
 12.4          486 
 12.42         460 
 12.44         495 
 12.46         481 
 12.48         456 
 12.5          490 
 12.52         470 
 12.54         450 
 12.56         475 
 12.58         477 
 12.6          483 
 12.62         478 
 12.64         489 
 12.66         488 
 12.68         488 
 12.7          441 
 12.72         523 
 12.74         473 
 12.76         470 
 12.78         452 
 12.8          525 
 12.82         499 
 12.84         482 
 12.86         516 
 12.88         492 
 12.9          481 
 12.92         483 
 12.94         497 
 12.96         471 
 12.98         471 
 13            465 
 13.02         466 
 13.04         455 
 13.06         456 
 13.08         426 
 13.1          509 
 13.12         465 
 13.14         501 
 13.16         490 
 13.18         470 
 13.2          452 
 13.22         458 
 13.24         457 
 13.26         473 
 13.28         460 
 13.3          407 
 13.32         453 
 13.34         488 
 13.36         436 
 13.38         455 
 13.4          450 
 13.42         457 
 13.44         408 
 13.46         454 
 13.48         425 
 13.5          424 
 13.52         418 
 13.54         421 
 13.56         401 
 13.58         450 
 13.6          399 
 13.62         400 
 13.64         449 
 13.66         419 
 13.68         413 
 13.7          404 
 13.72         420 
 13.74         363 
 13.76         390 
 13.78         400 
 13.8          408 
 13.82         392 
 13.84         407 
 13.86         376 
 13.88         374 
 13.9          408 
 13.92         381 
 13.94         363 
 13.96         400 
 13.98         345 
 14            341 
 14.02         362 
 14.04         365 
 14.06         394 
 14.08         372 
 14.1          344 
 14.12         337 
 14.14         329 
 14.16         315 
 14.18         333 
 14.2          343 
 14.22         334 
 14.24         343 
 14.26         316 
 14.28         339 
 14.3          341 
 14.32         332 
 14.34         320 
 14.36         291 
 14.38         320 
 14.4          362 
 14.42         327 
 14.44         299 
 14.46         338 
 14.48         323 
 14.5          307 
 14.52         316 
 14.54         311 
 14.56         296 
 14.58         308 
 14.6          328 
 14.62         292 
 14.64         286 
 14.66         287 
 14.68         301 
 14.7          276 
 14.72         283 
 14.74         295 
 14.76         318 
 14.78         290 
 14.8          300 
 14.82         313 
 14.84         330 
 14.86         321 
 14.88         349 
 14.9          378 
 14.92         393 
 14.94         436 
 14.96         463 
 14.98         505 
 15            675 
 15.02         727 
 15.04         1013 
 15.06         1177 
 15.08         1294 
 15.1          1379 
 15.12         1300 
 15.14         1147 
 15.16         876 
 15.18         649 
 15.2          482 
 15.22         379 
 15.24         299 
 15.26         275 
 15.28         238 
 15.3          258 
 15.32         243 
 15.34         261 
 15.36         237 
 15.38         234 
 15.4          239 
 15.42         235 
 15.44         230 
 15.46         234 
 15.48         205 
 15.5          223 
 15.52         233 
 15.54         228 
 15.56         223 
 15.58         211 
 15.6          210 
 15.62         216 
 15.64         203 
 15.66         189 
 15.68         219 
 15.7          231 
 15.72         210 
 15.74         221 
 15.76         217 
 15.78         217 
 15.8          199 
 15.82         180 
 15.84         216 
 15.86         213 
 15.88         209 
 15.9          209 
 15.92         228 
 15.94         180 
 15.96         197 
 15.98         210 
 16            188 
 16.02         188 
 16.04         190 
 16.06         192 
 16.08         182 
 16.1          194 
 16.12         165 
 16.14         179 
 16.16         167 
 16.18         185 
 16.2          186 
 16.22         166 
 16.24         182 
 16.26         183 
 16.28         179 
 16.3          177 
 16.32         203 
 16.34         162 
 16.36         213 
 16.38         196 
 16.4          175 
 16.42         192 
 16.44         187 
 16.46         179 
 16.48         156 
 16.5          174 
 16.52         163 
 16.54         201 
 16.56         167 
 16.58         168 
 16.6          182 
 16.62         171 
 16.64         158 
 16.66         169 
 16.68         173 
 16.7          187 
 16.72         164 
 16.74         162 
 16.76         176 
 16.78         172 
 16.8          148 
 16.82         173 
 16.84         160 
 16.86         170 
 16.88         148 
 16.9          169 
 16.92         171 
 16.94         156 
 16.96         143 
 16.98         157 
 17            172 
 17.02         153 
 17.04         148 
 17.06         162 
 17.08         161 
 17.1          148 
 17.12         157 
 17.14         154 
 17.16         168 
 17.18         146 
 17.2          143 
 17.22         166 
 17.24         158 
 17.26         130 
 17.28         172 
 17.3          147 
 17.32         157 
 17.34         142 
 17.36         126 
 17.38         165 
 17.4          139 
 17.42         166 
 17.44         138 
 17.46         163 
 17.48         167 
 17.5          155 
 17.52         134 
 17.54         155 
 17.56         164 
 17.58         147 
 17.6          140 
 17.62         143 
 17.64         149 
 17.66         155 
 17.68         153 
 17.7          153 
 17.72         127 
 17.74         148 
 17.76         150 
 17.78         160 
 17.8          124 
 17.82         127 
 17.84         148 
 17.86         129 
 17.88         143 
 17.9          149 
 17.92         156 
 17.94         174 
 17.96         150 
 17.98         149 
 18            152 
 18.02         130 
 18.04         120 
 18.06         143 
 18.08         146 
 18.1          116 
 18.12         143 
 18.14         131 
 18.16         156 
 18.18         145 
 18.2          140 
 18.22         123 
 18.24         118 
 18.26         120 
 18.28         139 
 18.3          129 
 18.32         132 
 18.34         131 
 18.36         130 
 18.38         144 
 18.4          137 
 18.42         133 
 18.44         112 
 18.46         120 
 18.48         130 
 18.5          126 
 18.52         147 
 18.54         132 
 18.56         134 
 18.58         110 
 18.6          124 
 18.62         117 
 18.64         103 
 18.66         126 
 18.68         106 
 18.7          124 
 18.72         117 
 18.74         130 
 18.76         114 
 18.78         126 
 18.8          123 
 18.82         121 
 18.84         79 
 18.86         123 
 18.88         111 
 18.9          122 
 18.92         126 
 18.94         120 
 18.96         129 
 18.98         123 
 19            145 
 19.02         128 
 19.04         120 
 19.06         133 
 19.08         134 
 19.1          131 
 19.12         113 
 19.14         114 
 19.16         101 
 19.18         104 
 19.2          120 
 19.22         133 
 19.24         98 
 19.26         95 
 19.28         122 
 19.3          103 
 19.32         114 
 19.34         120 
 19.36         100 
 19.38         111 
 19.4          124 
 19.42         116 
 19.44         88 
 19.46         102 
 19.48         120 
 19.5          99 
 19.52         122 
 19.54         93 
 19.56         96 
 19.58         100 
 19.6          118 
 19.62         91 
 19.64         117 
 19.66         107 
 19.68         124 
 19.7          106 
 19.72         104 
 19.74         108 
 19.76         110 
 19.78         111 
 19.8          104 
 19.82         107 
 19.84         104 
 19.86         104 
 19.88         120 
 19.9          100 
 19.92         115 
 19.94         122 
 19.96         95 
 19.98         92 
 20            99 
 20.02         114 
 20.04         95 
 20.06         106 
 20.08         118 
 20.1          98 
 20.12         90 
 20.14         104 
 20.16         127 
 20.18         105 
 20.2          107 
 20.22         114 
 20.24         95 
 20.26         121 
 20.28         124 
 20.3          107 
 20.32         113 
 20.34         107 
 20.36         126 
 20.38         119 
 20.4          120 
 20.42         112 
 20.44         91 
 20.46         124 
 20.48         151 
 20.5          130 
 20.52         129 
 20.54         113 
 20.56         108 
 20.58         92 
 20.6          117 
 20.62         100 
 20.64         109 
 20.66         123 
 20.68         104 
 20.7          117 
 20.72         105 
 20.74         110 
 20.76         97 
 20.78         107 
 20.8          114 
 20.82         112 
 20.84         118 
 20.86         107 
 20.88         100 
 20.9          126 
 20.92         158 
 20.94         151 
 20.96         148 
 20.98         184 
 21            178 
 21.02         217 
 21.04         246 
 21.06         286 
 21.08         285 
 21.1          364 
 21.12         458 
 21.14         593 
 21.16         787 
 21.18         1042 
 21.2          1463 
 21.22         1925 
 21.24         2472 
 21.26         3202 
 21.28         3858 
 21.3          4370 
 21.32         4284 
 21.34         4316 
 21.36         3756 
 21.38         3203 
 21.4          2691 
 21.42         2495 
 21.44         2429 
 21.46         2651 
 21.48         2890 
 21.5          3151 
 21.52         3169 
 21.54         2798 
 21.56         2299 
 21.58         1791 
 21.6          1318 
 21.62         889 
 21.64         577 
 21.66         411 
 21.68         401 
 21.7          333 
 21.72         379 
 21.74         351 
 21.76         399 
 21.78         369 
 21.8          352 
 21.82         343 
 21.84         285 
 21.86         227 
 21.88         204 
 21.9          146 
 21.92         159 
 21.94         136 
 21.96         125 
 21.98         111 
 22            112 
 22.02         120 
 22.04         110 
 22.06         92 
 22.08         103 
 22.1          92 
 22.12         94 
 22.14         102 
 22.16         106 
 22.18         92 
 22.2          107 
 22.22         101 
 22.24         92 
 22.26         91 
 22.28         103 
 22.3          85 
 22.32         88 
 22.34         97 
 22.36         76 
 22.38         93 
 22.4          98 
 22.42         98 
 22.44         106 
 22.46         95 
 22.48         106 
 22.5          90 
 22.52         113 
 22.54         89 
 22.56         77 
 22.58         70 
 22.6          93 
 22.62         94 
 22.64         75 
 22.66         99 
 22.68         93 
 22.7          97 
 22.72         96 
 22.74         81 
 22.76         102 
 22.78         81 
 22.8          106 
 22.82         94 
 22.84         96 
 22.86         78 
 22.88         86 
 22.9          76 
 22.92         83 
 22.94         70 
 22.96         84 
 22.98         88 
 23            68 
 23.02         92 
 23.04         101 
 23.06         86 
 23.08         77 
 23.1          86 
 23.12         84 
 23.14         95 
 23.16         82 
 23.18         77 
 23.2          78 
 23.22         104 
 23.24         64 
 23.26         95 
 23.28         83 
 23.3          110 
 23.32         86 
 23.34         97 
 23.36         94 
 23.38         97 
 23.4          73 
 23.42         82 
 23.44         91 
 23.46         89 
 23.48         83 
 23.5          88 
 23.52         78 
 23.54         96 
 23.56         88 
 23.58         77 
 23.6          78 
 23.62         92 
 23.64         81 
 23.66         81 
 23.68         86 
 23.7          85 
 23.72         91 
 23.74         80 
 23.76         70 
 23.78         81 
 23.8          92 
 23.82         91 
 23.84         92 
 23.86         77 
 23.88         95 
 23.9          103 
 23.92         92 
 23.94         96 
 23.96         94 
 23.98         69 
 24            61 
 24.02         76 
 24.04         80 
 24.06         78 
 24.08         87 
 24.1          79 
 24.12         71 
 24.14         87 
 24.16         89 
 24.18         88 
 24.2          87 
 24.22         89 
 24.24         77 
 24.26         91 
 24.28         89 
 24.3          72 
 24.32         82 
 24.34         89 
 24.36         89 
 24.38         81 
 24.4          86 
 24.42         78 
 24.44         82 
 24.46         106 
 24.48         72 
 24.5          94 
 24.52         79 
 24.54         84 
 24.56         94 
 24.58         99 
 24.6          69 
 24.62         87 
 24.64         98 
 24.66         99 
 24.68         104 
 24.7          111 
 24.72         102 
 24.74         105 
 24.76         103 
 24.78         112 
 24.8          151 
 24.82         154 
 24.84         168 
 24.86         180 
 24.88         198 
 24.9          250 
 24.92         233 
 24.94         340 
 24.96         361 
 24.98         440 
 25            633 
 25.02         854 
 25.04         1058 
 25.06         1569 
 25.08         2290 
 25.1          3169 
 25.12         4147 
 25.14         5484 
 25.16         6078 
 25.18         6433 
 25.2          6213 
 25.22         5325 
 25.24         4334 
 25.26         3210 
 25.28         2083 
 25.3          1404 
 25.32         886 
 25.34         547 
 25.36         329 
 25.38         263 
 25.4          219 
 25.42         196 
 25.44         195 
 25.46         170 
 25.48         151 
 25.5          149 
 25.52         149 
 25.54         115 
 25.56         117 
 25.58         117 
 25.6          120 
 25.62         105 
 25.64         84 
 25.66         101 
 25.68         107 
 25.7          110 
 25.72         114 
 25.74         106 
 25.76         116 
 25.78         118 
 25.8          104 
 25.82         128 
 25.84         139 
 25.86         138 
 25.88         141 
 25.9          157 
 25.92         177 
 25.94         185 
 25.96         184 
 25.98         195 
 26            209 
 26.02         227 
 26.04         201 
 26.06         235 
 26.08         224 
 26.1          210 
 26.12         196 
 26.14         151 
 26.16         132 
 26.18         117 
 26.2          93 
 26.22         112 
 26.24         113 
 26.26         93 
 26.28         96 
 26.3          128 
 26.32         86 
 26.34         115 
 26.36         121 
 26.38         131 
 26.4          113 
 26.42         113 
 26.44         113 
 26.46         96 
 26.48         102 
 26.5          94 
 26.52         77 
 26.54         84 
 26.56         90 
 26.58         66 
 26.6          74 
 26.62         78 
 26.64         70 
 26.66         84 
 26.68         76 
 26.7          86 
 26.72         72 
 26.74         89 
 26.76         81 
 26.78         89 
 26.8          66 
 26.82         76 
 26.84         79 
 26.86         83 
 26.88         71 
 26.9          73 
 26.92         93 
 26.94         70 
 26.96         84 
 26.98         70 
 27            59 
 27.02         64 
 27.04         55 
 27.06         78 
 27.08         82 
 27.1          72 
 27.12         63 
 27.14         80 
 27.16         86 
 27.18         65 
 27.2          80 
 27.22         71 
 27.24         56 
 27.26         64 
 27.28         66 
 27.3          69 
 27.32         76 
 27.34         68 
 27.36         75 
 27.38         78 
 27.4          72 
 27.42         76 
 27.44         69 
 27.46         75 
 27.48         83 
 27.5          73 
 27.52         85 
 27.54         74 
 27.56         94 
 27.58         83 
 27.6          67 
 27.62         63 
 27.64         75 
 27.66         70 
 27.68         85 
 27.7          72 
 27.72         68 
 27.74         81 
 27.76         85 
 27.78         80 
 27.8          82 
 27.82         65 
 27.84         68 
 27.86         80 
 27.88         73 
 27.9          73 
 27.92         50 
 27.94         63 
 27.96         71 
 27.98         75 
 28            60 
 28.02         75 
 28.04         76 
 28.06         76 
 28.08         82 
 28.1          99 
 28.12         73 
 28.14         76 
 28.16         78 
 28.18         102 
 28.2          100 
 28.22         77 
 28.24         92 
 28.26         82 
 28.28         74 
 28.3          81 
 28.32         80 
 28.34         66 
 28.36         65 
 28.38         75 
 28.4          76 
 28.42         81 
 28.44         58 
 28.46         74 
 28.48         78 
 28.5          83 
 28.52         64 
 28.54         66 
 28.56         78 
 28.58         60 
 28.6          68 
 28.62         58 
 28.64         62 
 28.66         63 
 28.68         61 
 28.7          70 
 28.72         69 
 28.74         50 
 28.76         70 
 28.78         76 
 28.8          67 
 28.82         54 
 28.84         76 
 28.86         62 
 28.88         71 
 28.9          54 
 28.92         69 
 28.94         73 
 28.96         76 
 28.98         62 
 29            67 
 29.02         67 
 29.04         64 
 29.06         71 
 29.08         53 
 29.1          59 
 29.12         54 
 29.14         68 
 29.16         53 
 29.18         69 
 29.2          64 
 29.22         56 
 29.24         53 
 29.26         67 
 29.28         63 
 29.3          72 
 29.32         70 
 29.34         66 
 29.36         67 
 29.38         66 
 29.4          67 
 29.42         59 
 29.44         54 
 29.46         60 
 29.48         71 
 29.5          57 
 29.52         69 
 29.54         77 
 29.56         69 
 29.58         47 
 29.6          67 
 29.62         76 
 29.64         68 
 29.66         85 
 29.68         58 
 29.7          66 
 29.72         75 
 29.74         70 
 29.76         68 
 29.78         83 
 29.8          67 
 29.82         69 
 29.84         65 
 29.86         84 
 29.88         63 
 29.9          71 
 29.92         76 
 29.94         76 
 29.96         90 
 29.98         89 
 30            86 
 30.02         93 
 30.04         91 
 30.06         93 
 30.08         94 
 30.1          111 
 30.12         124 
 30.14         125 
 30.16         160 
 30.18         146 
 30.2          178 
 30.22         215 
 30.24         266 
 30.26         353 
 30.28         436 
 30.3          606 
 30.32         829 
 30.34         1239 
 30.36         1716 
 30.38         2290 
 30.4          3003 
 30.42         3697 
 30.44         3932 
 30.46         4268 
 30.48         3744 
 30.5          3394 
 30.52         2673 
 30.54         2052 
 30.56         1466 
 30.58         973 
 30.6          655 
 30.62         415 
 30.64         302 
 30.66         225 
 30.68         183 
 30.7          155 
 30.72         129 
 30.74         124 
 30.76         119 
 30.78         111 
 30.8          97 
 30.82         95 
 30.84         93 
 30.86         95 
 30.88         93 
 30.9          82 
 30.92         82 
 30.94         80 
 30.96         97 
 30.98         87 
 31            79 
 31.02         95 
 31.04         104 
 31.06         78 
 31.08         117 
 31.1          100 
 31.12         96 
 31.14         101 
 31.16         91 
 31.18         87 
 31.2          94 
 31.22         84 
 31.24         83 
 31.26         88 
 31.28         72 
 31.3          66 
 31.32         47 
 31.34         66 
 31.36         73 
 31.38         49 
 31.4          63 
 31.42         64 
 31.44         54 
 31.46         55 
 31.48         57 
 31.5          68 
 31.52         78 
 31.54         65 
 31.56         53 
 31.58         60 
 31.6          48 
 31.62         64 
 31.64         55 
 31.66         56 
 31.68         64 
 31.7          59 
 31.72         46 
 31.74         63 
 31.76         65 
 31.78         59 
 31.8          53 
 31.82         44 
 31.84         60 
 31.86         66 
 31.88         58 
 31.9          62 
 31.92         56 
 31.94         59 
 31.96         54 
 31.98         50 
 32            63 
 32.02         58 
 32.04         66 
 32.06         71 
 32.08         53 
 32.1          53 
 32.12         56 
 32.14         63 
 32.16         69 
 32.18         57 
 32.2          53 
 32.22         55 
 32.24         62 
 32.26         66 
 32.28         50 
 32.3          68 
 32.32         52 
 32.34         69 
 32.36         68 
 32.38         53 
 32.4          63 
 32.42         54 
 32.44         59 
 32.46         51 
 32.48         57 
 32.5          66 
 32.52         48 
 32.54         74 
 32.56         70 
 32.58         67 
 32.6          62 
 32.62         56 
 32.64         54 
 32.66         72 
 32.68         56 
 32.7          66 
 32.72         68 
 32.74         66 
 32.76         64 
 32.78         65 
 32.8          68 
 32.82         69 
 32.84         72 
 32.86         66 
 32.88         87 
 32.9          64 
 32.92         57 
 32.94         65 
 32.96         72 
 32.98         73 
 33            73 
 33.02         74 
 33.04         79 
 33.06         73 
 33.08         96 
 33.1          95 
 33.12         90 
 33.14         98 
 33.16         116 
 33.18         137 
 33.2          148 
 33.22         192 
 33.24         237 
 33.26         346 
 33.28         426 
 33.3          587 
 33.32         747 
 33.34         935 
 33.36         1075 
 33.38         1299 
 33.4          1286 
 33.42         1331 
 33.44         1187 
 33.46         1093 
 33.48         881 
 33.5          770 
 33.52         588 
 33.54         479 
 33.56         336 
 33.58         270 
 33.6          204 
 33.62         192 
 33.64         139 
 33.66         132 
 33.68         125 
 33.7          150 
 33.72         142 
 33.74         165 
 33.76         178 
 33.78         198 
 33.8          228 
 33.82         297 
 33.84         391 
 33.86         533 
 33.88         704 
 33.9          973 
 33.92         1347 
 33.94         1657 
 33.96         2043 
 33.98         2454 
 34            2588 
 34.02         2733 
 34.04         2656 
 34.06         2496 
 34.08         2126 
 34.1          1744 
 34.12         1399 
 34.14         1100 
 34.16         773 
 34.18         519 
 34.2          364 
 34.22         277 
 34.24         203 
 34.26         155 
 34.28         118 
 34.3          123 
 34.32         101 
 34.34         73 
 34.36         79 
 34.38         88 
 34.4          87 
 34.42         70 
 34.44         81 
 34.46         74 
 34.48         85 
 34.5          75 
 34.52         78 
 34.54         64 
 34.56         64 
 34.58         72 
 34.6          68 
 34.62         74 
 34.64         70 
 34.66         71 
 34.68         78 
 34.7          65 
 34.72         68 
 34.74         62 
 34.76         61 
 34.78         54 
 34.8          55 
 34.82         48 
 34.84         54 
 34.86         60 
 34.88         72 
 34.9          58 
 34.92         47 
 34.94         46 
 34.96         48 
 34.98         52 
 35            56 
 35.02         47 
 35.04         51 
 35.06         55 
 35.08         59 
 35.1          61 
 35.12         56 
 35.14         51 
 35.16         44 
 35.18         44 
 35.2          61 
 35.22         59 
 35.24         45 
 35.26         36 
 35.28         52 
 35.3          50 
 35.32         47 
 35.34         59 
 35.36         66 
 35.38         59 
 35.4          47 
 35.42         63 
 35.44         47 
 35.46         47 
 35.48         59 
 35.5          59 
 35.52         58 
 35.54         60 
 35.56         63 
 35.58         58 
 35.6          74 
 35.62         66 
 35.64         53 
 35.66         85 
 35.68         80 
 35.7          89 
 35.72         97 
 35.74         98 
 35.76         81 
 35.78         88 
 35.8          83 
 35.82         95 
 35.84         92 
 35.86         82 
 35.88         72 
 35.9          73 
 35.92         84 
 35.94         79 
 35.96         69 
 35.98         74 
 36            60 
 36.02         74 
 36.04         58 
 36.06         57 
 36.08         51 
 36.1          55 
 36.12         67 
 36.14         59 
 36.16         53 
 36.18         59 
 36.2          65 
 36.22         56 
 36.24         48 
 36.26         54 
 36.28         44 
 36.3          55 
 36.32         42 
 36.34         46 
 36.36         50 
 36.38         51 
 36.4          40 
 36.42         53 
 36.44         57 
 36.46         41 
 36.48         44 
 36.5          43 
 36.52         46 
 36.54         48 
 36.56         59 
 36.58         47 
 36.6          56 
 36.62         58 
 36.64         65 
 36.66         47 
 36.68         59 
 36.7          50 
 36.72         40 
 36.74         64 
 36.76         54 
 36.78         58 
 36.8          48 
 36.82         48 
 36.84         48 
 36.86         41 
 36.88         52 
 36.9          64 
 36.92         62 
 36.94         49 
 36.96         46 
 36.98         60 
 37            62 
 37.02         57 
 37.04         67 
 37.06         65 
 37.08         81 
 37.1          72 
 37.12         93 
 37.14         84 
 37.16         94 
 37.18         101 
 37.2          99 
 37.22         87 
 37.24         126 
 37.26         138 
 37.28         145 
 37.3          136 
 37.32         161 
 37.34         180 
 37.36         214 
 37.38         219 
 37.4          256 
 37.42         311 
 37.44         421 
 37.46         613 
 37.48         764 
 37.5          1084 
 37.52         1287 
 37.54         1671 
 37.56         1876 
 37.58         2080 
 37.6          2260 
 37.62         2342 
 37.64         2469 
 37.66         2390 
 37.68         2341 
 37.7          2199 
 37.72         1994 
 37.74         1755 
 37.76         1479 
 37.78         1172 
 37.8          1036 
 37.82         805 
 37.84         626 
 37.86         468 
 37.88         361 
 37.9          255 
 37.92         223 
 37.94         186 
 37.96         153 
 37.98         124 
 38            106 
 38.02         102 
 38.04         92 
 38.06         85 
 38.08         94 
 38.1          79 
 38.12         73 
 38.14         81 
 38.16         86 
 38.18         79 
 38.2          64 
 38.22         67 
 38.24         67 
 38.26         68 
 38.28         72 
 38.3          67 
 38.32         73 
 38.34         54 
 38.36         59 
 38.38         52 
 38.4          73 
 38.42         54 
 38.44         59 
 38.46         46 
 38.48         43 
 38.5          60 
 38.52         60 
 38.54         45 
 38.56         45 
 38.58         42 
 38.6          53 
 38.62         49 
 38.64         53 
 38.66         39 
 38.68         43 
 38.7          66 
 38.72         38 
 38.74         56 
 38.76         52 
 38.78         52 
 38.8          44 
 38.82         44 
 38.84         54 
 38.86         48 
 38.88         54 
 38.9          54 
 38.92         50 
 38.94         61 
 38.96         58 
 38.98         52 
 39            56 
 39.02         52 
 39.04         44 
 39.06         41 
 39.08         54 
 39.1          49 
 39.12         44 
 39.14         59 
 39.16         49 
 39.18         37 
 39.2          54 
 39.22         60 
 39.24         54 
 39.26         59 
 39.28         52 
 39.3          47 
 39.32         53 
 39.34         49 
 39.36         54 
 39.38         46 
 39.4          72 
 39.42         59 
 39.44         54 
 39.46         50 
 39.48         45 
 39.5          54 
 39.52         61 
 39.54         58 
 39.56         48 
 39.58         67 
 39.6          61 
 39.62         70 
 39.64         68 
 39.66         56 
 39.68         53 
 39.7          59 
 39.72         64 
 39.74         78 
 39.76         55 
 39.78         59 
 39.8          74 
 39.82         75 
 39.84         59 
 39.86         59 
 39.88         83 
 39.9          80 
 39.92         111 
 39.94         91 
 39.96         90 
 39.98         98 
 40            103 
 40.02         111 
 40.04         104 
 40.06         101 
 40.08         97 
 40.1          104 
 40.12         99 
 40.14         63 
 40.16         69 
 40.18         59 
 40.2          62 
 40.22         61 
 40.24         53 
 40.26         62 
 40.28         39 
 40.3          55 
 40.32         53 
 40.34         44 
 40.36         43 
 40.38         51 
 40.4          44 
 40.42         36 
 40.44         59 
 40.46         54 
 40.48         48 
 40.5          47 
 40.52         50 
 40.54         56 
 40.56         53 
 40.58         41 
 40.6          45 
 40.62         59 
 40.64         39 
 40.66         30 
 40.68         50 
 40.7          52 
 40.72         42 
 40.74         52 
 40.76         48 
 40.78         57 
 40.8          58 
 40.82         47 
 40.84         46 
 40.86         46 
 40.88         51 
 40.9          42 
 40.92         46 
 40.94         46 
 40.96         41 
 40.98         44 
 41            55 
 41.02         48 
 41.04         45 
 41.06         48 
 41.08         43 
 41.1          43 
 41.12         53 
 41.14         46 
 41.16         39 
 41.18         55 
 41.2          39 
 41.22         46 
 41.24         50 
 41.26         48 
 41.28         49 
 41.3          43 
 41.32         49 
 41.34         51 
 41.36         39 
 41.38         41 
 41.4          49 
 41.42         47 
 41.44         42 
 41.46         69 
 41.48         69 
 41.5          39 
 41.52         47 
 41.54         62 
 41.56         41 
 41.58         55 
 41.6          53 
 41.62         56 
 41.64         49 
 41.66         56 
 41.68         47 
 41.7          48 
 41.72         47 
 41.74         48 
 41.76         56 
 41.78         55 
 41.8          49 
 41.82         47 
 41.84         38 
 41.86         55 
 41.88         37 
 41.9          48 
 41.92         46 
 41.94         47 
 41.96         41 
 41.98         54 
 42            50 
 42.02         40 
 42.04         57 
 42.06         43 
 42.08         43 
 42.1          46 
 42.12         37 
 42.14         54 
 42.16         52 
 42.18         60 
 42.2          54 
 42.22         60 
 42.24         55 
 42.26         46 
 42.28         45 
 42.3          63 
 42.32         62 
 42.34         53 
 42.36         34 
 42.38         50 
 42.4          60 
 42.42         56 
 42.44         56 
 42.46         50 
 42.48         61 
 42.5          44 
 42.52         51 
 42.54         43 
 42.56         49 
 42.58         48 
 42.6          55 
 42.62         48 
 42.64         47 
 42.66         46 
 42.68         43 
 42.7          50 
 42.72         47 
 42.74         54 
 42.76         45 
 42.78         38 
 42.8          39 
 42.82         37 
 42.84         39 
 42.86         51 
 42.88         36 
 42.9          37 
 42.92         47 
 42.94         76 
 42.96         52 
 42.98         49 
 43            37 
 43.02         44 
 43.04         53 
 43.06         50 
 43.08         46 
 43.1          51 
 43.12         71 
 43.14         67 
 43.16         56 
 43.18         96 
 43.2          81 
 43.22         104 
 43.24         135 
 43.26         132 
 43.28         214 
 43.3          236 
 43.32         280 
 43.34         321 
 43.36         299 
 43.38         312 
 43.4          369 
 43.42         315 
 43.44         310 
 43.46         285 
 43.48         250 
 43.5          247 
 43.52         183 
 43.54         155 
 43.56         146 
 43.58         127 
 43.6          86 
 43.62         77 
 43.64         69 
 43.66         71 
 43.68         71 
 43.7          54 
 43.72         71 
 43.74         73 
 43.76         65 
 43.78         70 
 43.8          56 
 43.82         66 
 43.84         69 
 43.86         78 
 43.88         56 
 43.9          53 
 43.92         60 
 43.94         62 
 43.96         58 
 43.98         60 
 44            51 
 44.02         47 
 44.04         48 
 44.06         42 
 44.08         44 
 44.1          52 
 44.12         51 
 44.14         56 
 44.16         32 
 44.18         51 
 44.2          45 
 44.22         57 
 44.24         41 
 44.26         50 
 44.28         39 
 44.3          56 
 44.32         41 
 44.34         41 
 44.36         65 
 44.38         65 
 44.4          54 
 44.42         49 
 44.44         49 
 44.46         64 
 44.48         48 
 44.5          55 
 44.52         45 
 44.54         50 
 44.56         44 
 44.58         62 
 44.6          42 
 44.62         61 
 44.64         39 
 44.66         43 
 44.68         57 
 44.7          45 
 44.72         38 
 44.74         59 
 44.76         49 
 44.78         42 
 44.8          51 
 44.82         46 
 44.84         46 
 44.86         65 
 44.88         51 
 44.9          64 
 44.92         52 
 44.94         49 
 44.96         55 
 44.98         59 
 45            40 
 45.02         70 
 45.04         72 
 45.06         57 
 45.08         73 
 45.1          69 
 45.12         69 
 45.14         79 
 45.16         92 
 45.18         86 
 45.2          131 
 45.22         167 
 45.24         155 
 45.26         221 
 45.28         221 
 45.3          260 
 45.32         332 
 45.34         375 
 45.36         400 
 45.38         416 
 45.4          411 
 45.42         444 
 45.44         428 
 45.46         469 
 45.48         433 
 45.5          411 
 45.52         408 
 45.54         391 
 45.56         379 
 45.58         350 
 45.6          315 
 45.62         303 
 45.64         258 
 45.66         269 
 45.68         242 
 45.7          236 
 45.72         253 
 45.74         234 
 45.76         263 
 45.78         309 
 45.8          326 
 45.82         355 
 45.84         360 
 45.86         405 
 45.88         405 
 45.9          350 
 45.92         380 
 45.94         358 
 45.96         343 
 45.98         314 
 46            313 
 46.02         268 
 46.04         242 
 46.06         218 
 46.08         180 
 46.1          186 
 46.12         168 
 46.14         140 
 46.16         127 
 46.18         110 
 46.2          104 
 46.22         104 
 46.24         110 
 46.26         118 
 46.28         127 
 46.3          137 
 46.32         145 
 46.34         177 
 46.36         163 
 46.38         164 
 46.4          177 
 46.42         180 
 46.44         189 
 46.46         214 
 46.48         202 
 46.5          229 
 46.52         237 
 46.54         291 
 46.56         242 
 46.58         242 
 46.6          253 
 46.62         242 
 46.64         221 
 46.66         227 
 46.68         192 
 46.7          178 
 46.72         154 
 46.74         117 
 46.76         118 
 46.78         80 
 46.8          75 
 46.82         69 
 46.84         68 
 46.86         67 
 46.88         57 
 46.9          47 
 46.92         54 
 46.94         59 
 46.96         62 
 46.98         32 
 47            35 
 47.02         51 
 47.04         51 
 47.06         51 
 47.08         45 
 47.1          52 
 47.12         46 
 47.14         41 
 47.16         52 
 47.18         54 
 47.2          54 
 47.22         34 
 47.24         53 
 47.26         52 
 47.28         53 
 47.3          46 
 47.32         44 
 47.34         42 
 47.36         46 
 47.38         40 
 47.4          51 
 47.42         47 
 47.44         44 
 47.46         35 
 47.48         53 
 47.5          37 
 47.52         38 
 47.54         38 
 47.56         37 
 47.58         46 
 47.6          56 
 47.62         35 
 47.64         46 
 47.66         47 
 47.68         41 
 47.7          36 
 47.72         29 
 47.74         54 
 47.76         47 
 47.78         40 
 47.8          60 
 47.82         55 
 47.84         41 
 47.86         39 
 47.88         33 
 47.9          59 
 47.92         49 
 47.94         55 
 47.96         64 
 47.98         50 
 48            53 
 48.02         71 
 48.04         59 
 48.06         56 
 48.08         70 
 48.1          56 
 48.12         69 
 48.14         50 
 48.16         75 
 48.18         62 
 48.2          65 
 48.22         56 
 48.24         78 
 48.26         63 
 48.28         75 
 48.3          59 
 48.32         68 
 48.34         75 
 48.36         57 
 48.38         67 
 48.4          61 
 48.42         71 
 48.44         81 
 48.46         60 
 48.48         66 
 48.5          75 
 48.52         75 
 48.54         88 
 48.56         109 
 48.58         100 
 48.6          108 
 48.62         137 
 48.64         152 
 48.66         154 
 48.68         204 
 48.7          252 
 48.72         312 
 48.74         400 
 48.76         539 
 48.78         691 
 48.8          868 
 48.82         1075 
 48.84         1265 
 48.86         1482 
 48.88         1613 
 48.9          1674 
 48.92         1666 
 48.94         1625 
 48.96         1570 
 48.98         1398 
 49            1261 
 49.02         1205 
 49.04         1129 
 49.06         1136 
 49.08         1014 
 49.1          995 
 49.12         1024 
 49.14         1050 
 49.16         975 
 49.18         1032 
 49.2          1045 
 49.22         965 
 49.24         870 
 49.26         821 
 49.28         699 
 49.3          699 
 49.32         580 
 49.34         473 
 49.36         387 
 49.38         325 
 49.4          289 
 49.42         195 
 49.44         177 
 49.46         126 
 49.48         125 
 49.5          92 
 49.52         86 
 49.54         84 
 49.56         69 
 49.58         71 
 49.6          71 
 49.62         67 
 49.64         65 
 49.66         68 
 49.68         51 
 49.7          54 
 49.72         57 
 49.74         60 
 49.76         53 
 49.78         73 
 49.8          64 
 49.82         44 
 49.84         54 
 49.86         65 
 49.88         49 
 49.9          54 
 49.92         44 
 49.94         52 
 49.96         38 
 49.98         48 
 50            51 
 50.02         67 
 50.04         38 
 50.06         47 
 50.08         55 
 50.1          48 
 50.12         47 
 50.14         48 
 50.16         49 
 50.18         46 
 50.2          49 
 50.22         56 
 50.24         37 
 50.26         50 
 50.28         55 
 50.3          41 
 50.32         46 
 50.34         45 
 50.36         58 
 50.38         48 
 50.4          49 
 50.42         44 
 50.44         57 
 50.46         40 
 50.48         40 
 50.5          29 
 50.52         57 
 50.54         58 
 50.56         62 
 50.58         49 
 50.6          52 
 50.62         57 
 50.64         43 
 50.66         52 
 50.68         47 
 50.7          64 
 50.72         54 
 50.74         56 
 50.76         47 
 50.78         40 
 50.8          65 
 50.82         75 
 50.84         68 
 50.86         74 
 50.88         75 
 50.9          100 
 50.92         109 
 50.94         137 
 50.96         140 
 50.98         160 
 51            212 
 51.02         259 
 51.04         279 
 51.06         303 
 51.08         311 
 51.1          321 
 51.12         348 
 51.14         305 
 51.16         358 
 51.18         343 
 51.2          366 
 51.22         379 
 51.24         361 
 51.26         360 
 51.28         384 
 51.3          383 
 51.32         384 
 51.34         377 
 51.36         329 
 51.38         334 
 51.4          299 
 51.42         299 
 51.44         303 
 51.46         311 
 51.48         331 
 51.5          431 
 51.52         463 
 51.54         587 
 51.56         751 
 51.58         907 
 51.6          1140 
 51.62         1198 
 51.64         1305 
 51.66         1286 
 51.68         1251 
 51.7          1223 
 51.72         1226 
 51.74         1257 
 51.76         1168 
 51.78         1126 
 51.8          1046 
 51.82         922 
 51.84         875 
 51.86         801 
 51.88         669 
 51.9          597 
 51.92         534 
 51.94         456 
 51.96         439 
 51.98         318 
 52            304 
 52.02         278 
 52.04         225 
 52.06         182 
 52.08         149 
 52.1          131 
 52.12         107 
 52.14         88 
 52.16         84 
 52.18         71 
 52.2          84 
 52.22         67 
 52.24         76 
 52.26         65 
 52.28         65 
 52.3          64 
 52.32         40 
 52.34         61 
 52.36         53 
 52.38         50 
 52.4          47 
 52.42         64 
 52.44         51 
 52.46         63 
 52.48         39 
 52.5          52 
 52.52         60 
 52.54         53 
 52.56         52 
 52.58         58 
 52.6          53 
 52.62         55 
 52.64         42 
 52.66         58 
 52.68         41 
 52.7          49 
 52.72         55 
 52.74         44 
 52.76         61 
 52.78         62 
 52.8          48 
 52.82         58 
 52.84         55 
 52.86         57 
 52.88         41 
 52.9          47 
 52.92         44 
 52.94         54 
 52.96         34 
 52.98         52 
 53            50 
 53.02         58 
 53.04         49 
 53.06         50 
 53.08         48 
 53.1          52 
 53.12         49 
 53.14         49 
 53.16         60 
 53.18         64 
 53.2          60 
 53.22         69 
 53.24         69 
 53.26         91 
 53.28         76 
 53.3          61 
 53.32         82 
 53.34         87 
 53.36         84 
 53.38         127 
 53.4          122 
 53.42         123 
 53.44         135 
 53.46         131 
 53.48         136 
 53.5          137 
 53.52         134 
 53.54         149 
 53.56         153 
 53.58         139 
 53.6          150 
 53.62         144 
 53.64         165 
 53.66         155 
 53.68         161 
 53.7          134 
 53.72         115 
 53.74         121 
 53.76         110 
 53.78         87 
 53.8          85 
 53.82         74 
 53.84         101 
 53.86         83 
 53.88         59 
 53.9          56 
 53.92         49 
 53.94         56 
 53.96         54 
 53.98         58 
 54            46 
 54.02         41 
 54.04         48 
 54.06         56 
 54.08         41 
 54.1          53 
 54.12         40 
 54.14         52 
 54.16         58 
 54.18         68 
 54.2          69 
 54.22         51 
 54.24         54 
 54.26         42 
 54.28         58 
 54.3          62 
 54.32         51 
 54.34         63 
 54.36         46 
 54.38         55 
 54.4          40 
 54.42         45 
 54.44         50 
 54.46         51 
 54.48         35 
 54.5          51 
 54.52         51 
 54.54         43 
 54.56         40 
 54.58         37 
 54.6          43 
 54.62         42 
 54.64         41 
 54.66         43 
 54.68         50 
 54.7          42 
 54.72         40 
 54.74         42 
 54.76         51 
 54.78         48 
 54.8          45 
 54.82         50 
 54.84         53 
 54.86         37 
 54.88         37 
 54.9          48 
 54.92         54 
 54.94         44 
 54.96         31 
 54.98         35 
 55            45 
 55.02         48 
 55.04         53 
 55.06         51 
 55.08         55 
 55.1          41 
 55.12         39 
 55.14         55 
 55.16         43 
 55.18         50 
 55.2          35 
 55.22         43 
 55.24         47 
 55.26         38 
 55.28         55 
 55.3          63 
 55.32         52 
 55.34         54 
 55.36         42 
 55.38         61 
 55.4          57 
 55.42         64 
 55.44         64 
 55.46         59 
 55.48         70 
 55.5          55 
 55.52         61 
 55.54         62 
 55.56         58 
 55.58         89 
 55.6          73 
 55.62         66 
 55.64         68 
 55.66         89 
 55.68         83 
 55.7          107 
 55.72         129 
 55.74         128 
 55.76         157 
 55.78         223 
 55.8          290 
 55.82         345 
 55.84         434 
 55.86         424 
 55.88         493 
 55.9          472 
 55.92         493 
 55.94         490 
 55.96         486 
 55.98         500 
 56            492 
 56.02         545 
 56.04         576 
 56.06         574 
 56.08         632 
 56.1          752 
 56.12         758 
 56.14         841 
 56.16         889 
 56.18         957 
 56.2          949 
 56.22         997 
 56.24         1004 
 56.26         908 
 56.28         952 
 56.3          951 
 56.32         863 
 56.34         779 
 56.36         670 
 56.38         618 
 56.4          507 
 56.42         481 
 56.44         373 
 56.46         331 
 56.48         292 
 56.5          219 
 56.52         193 
 56.54         161 
 56.56         142 
 56.58         112 
 56.6          103 
 56.62         97 
 56.64         84 
 56.66         89 
 56.68         78 
 56.7          84 
 56.72         66 
 56.74         82 
 56.76         74 
 56.78         82 
 56.8          67 
 56.82         72 
 56.84         62 
 56.86         71 
 56.88         62 
 56.9          54 
 56.92         52 
 56.94         62 
 56.96         62 
 56.98         44 
 57            62 
 57.02         48 
 57.04         58 
 57.06         49 
 57.08         49 
 57.1          43 
 57.12         42 
 57.14         47 
 57.16         49 
 57.18         45 
 57.2          53 
 57.22         52 
 57.24         38 
 57.26         58 
 57.28         49 
 57.3          48 
 57.32         54 
 57.34         53 
 57.36         51 
 57.38         47 
 57.4          52 
 57.42         51 
 57.44         43 
 57.46         46 
 57.48         49 
 57.5          36 
 57.52         55 
 57.54         45 
 57.56         49 
 57.58         49 
 57.6          53 
 57.62         46 
 57.64         42 
 57.66         42 
 57.68         43 
 57.7          60 
 57.72         57 
 57.74         57 
 57.76         51 
 57.78         45 
 57.8          33 
 57.82         42 
 57.84         54 
 57.86         59 
 57.88         48 
 57.9          55 
 57.92         56 
 57.94         58 
 57.96         71 
 57.98         57 
 58            83 
 58.02         66 
 58.04         66 
 58.06         85 
 58.08         95 
 58.1          95 
 58.12         94 
 58.14         110 
 58.16         133 
 58.18         142 
 58.2          145 
 58.22         161 
 58.24         174 
 58.26         194 
 58.28         252 
 58.3          242 
 58.32         256 
 58.34         236 
 58.36         227 
 58.38         268 
 58.4          242 
 58.42         278 
 58.44         223 
 58.46         265 
 58.48         277 
 58.5          277 
 58.52         249 
 58.54         268 
 58.56         276 
 58.58         285 
 58.6          309 
 58.62         367 
 58.64         402 
 58.66         510 
 58.68         629 
 58.7          768 
 58.72         828 
 58.74         895 
 58.76         993 
 58.78         1023 
 58.8          951 
 58.82         987 
 58.84         978 
 58.86         990 
 58.88         1138 
 58.9          1128 
 58.92         1299 
 58.94         1351 
 58.96         1583 
 58.98         1710 
 59            1682 
 59.02         1836 
 59.04         1867 
 59.06         1919 
 59.08         1913 
 59.1          1845 
 59.12         1805 
 59.14         1803 
 59.16         1645 
 59.18         1590 
 59.2          1479 
 59.22         1392 
 59.24         1161 
 59.26         1045 
 59.28         935 
 59.3          771 
 59.32         634 
 59.34         541 
 59.36         524 
 59.38         336 
 59.4          293 
 59.42         247 
 59.44         231 
 59.46         185 
 59.48         147 
 59.5          127 
 59.52         136 
 59.54         108 
 59.56         110 
 59.58         105 
 59.6          92 
 59.62         91 
 59.64         77 
 59.66         84 
 59.68         76 
 59.7          76 
 59.72         89 
 59.74         66 
 59.76         65 
 59.78         67 
 59.8          80 
 59.82         68 
 59.84         55 
 59.86         52 
 59.88         64 
 59.9          62 
 59.92         64 
 59.94         64 
 59.96         61 
 59.98         53 
 60            59 
 60.02         57 
 60.04         63 
 60.06         66 
 60.08         60 
 60.1          73 
 60.12         57 
 60.14         57 
 60.16         67 
 60.18         52 
 60.2          70 
 60.22         84 
 60.24         87 
 60.26         93 
 60.28         93 
 60.3          91 
 60.32         111 
 60.34         128 
 60.36         130 
 60.38         156 
 60.4          142 
 60.42         159 
 60.44         169 
 60.46         149 
 60.48         150 
 60.5          142 
 60.52         158 
 60.54         164 
 60.56         180 
 60.58         196 
 60.6          242 
 60.62         276 
 60.64         348 
 60.66         344 
 60.68         368 
 60.7          423 
 60.72         472 
 60.74         481 
 60.76         485 
 60.78         423 
 60.8          495 
 60.82         421 
 60.84         423 
 60.86         408 
 60.88         350 
 60.9          373 
 60.92         316 
 60.94         302 
 60.96         240 
 60.98         223 
 61            191 
 61.02         158 
 61.04         141 
 61.06         104 
 61.08         102 
 61.1          97 
 61.12         95 
 61.14         79 
 61.16         82 
 61.18         74 
 61.2          64 
 61.22         60 
 61.24         72 
 61.26         47 
 61.28         51 
 61.3          68 
 61.32         61 
 61.34         75 
 61.36         54 
 61.38         52 
 61.4          67 
 61.42         52 
 61.44         42 
 61.46         67 
 61.48         66 
 61.5          67 
 61.52         63 
 61.54         53 
 61.56         45 
 61.58         52 
 61.6          45 
 61.62         54 
 61.64         54 
 61.66         58 
 61.68         45 
 61.7          48 
 61.72         50 
 61.74         44 
 61.76         39 
 61.78         41 
 61.8          49 
 61.82         40 
 61.84         55 
 61.86         34 
 61.88         50 
 61.9          56 
 61.92         43 
 61.94         48 
 61.96         40 
 61.98         38 
 62            44 
 62.02         45 
 62.04         46 
 62.06         49 
 62.08         43 
 62.1          48 
 62.12         35 
 62.14         54 
 62.16         38 
 62.18         51 
 62.2          48 
 62.22         50 
 62.24         41 
 62.26         48 
 62.28         43 
 62.3          46 
 62.32         43 
 62.34         42 
 62.36         42 
 62.38         51 
 62.4          36 
 62.42         51 
 62.44         47 
 62.46         48 
 62.48         59 
 62.5          51 
 62.52         57 
 62.54         41 
 62.56         45 
 62.58         52 
 62.6          55 
 62.62         43 
 62.64         52 
 62.66         45 
 62.68         43 
 62.7          46 
 62.72         42 
 62.74         47 
 62.76         50 
 62.78         40 
 62.8          59 
 62.82         50 
 62.84         53 
 62.86         46 
 62.88         47 
 62.9          46 
 62.92         57 
 62.94         52 
 62.96         53 
 62.98         49 
 63            49 
 63.02         54 
 63.04         70 
 63.06         83 
 63.08         70 
 63.1          71 
 63.12         91 
 63.14         122 
 63.16         131 
 63.18         168 
 63.2          220 
 63.22         284 
 63.24         304 
 63.26         411 
 63.28         392 
 63.3          440 
 63.32         432 
 63.34         433 
 63.36         399 
 63.38         381 
 63.4          329 
 63.42         324 
 63.44         335 
 63.46         292 
 63.48         270 
 63.5          272 
 63.52         233 
 63.54         177 
 63.56         177 
 63.58         152 
 63.6          128 
 63.62         102 
 63.64         106 
 63.66         81 
 63.68         84 
 63.7          71 
 63.72         57 
 63.74         69 
 63.76         47 
 63.78         68 
 63.8          53 
 63.82         47 
 63.84         43 
 63.86         50 
 63.88         56 
 63.9          53 
 63.92         45 
 63.94         48 
 63.96         47 
 63.98         50 
 64            48 
 64.02         41 
 64.04         50 
 64.06         46 
 64.08         45 
 64.1          37 
 64.12         47 
 64.14         47 
 64.16         57 
 64.18         46 
 64.2          56 
 64.22         74 
 64.24         73 
 64.26         62 
 64.28         60 
 64.3          60 
 64.32         73 
 64.34         57 
 64.36         66 
 64.38         77 
 64.4          45 
 64.42         67 
 64.44         90 
 64.46         67 
 64.48         75 
 64.5          60 
 64.52         64 
 64.54         73 
 64.56         105 
 64.58         93 
 64.6          79 
 64.62         121 
 64.64         110 
 64.66         138 
 64.68         124 
 64.7          142 
 64.72         154 
 64.74         133 
 64.76         178 
 64.78         144 
 64.8          206 
 64.82         166 
 64.84         192 
 64.86         213 
 64.88         221 
 64.9          230 
 64.92         223 
 64.94         245 
 64.96         256 
 64.98         317 
 65            304 
 65.02         335 
 65.04         290 
 65.06         322 
 65.08         318 
 65.1          364 
 65.12         345 
 65.14         359 
 65.16         366 
 65.18         386 
 65.2          441 
 65.22         477 
 65.24         559 
 65.26         609 
 65.28         668 
 65.3          700 
 65.32         821 
 65.34         736 
 65.36         809 
 65.38         766 
 65.4          763 
 65.42         686 
 65.44         642 
 65.46         666 
 65.48         625 
 65.5          647 
 65.52         682 
 65.54         717 
 65.56         751 
 65.58         766 
 65.6          762 
 65.62         766 
 65.64         740 
 65.66         732 
 65.68         690 
 65.7          671 
 65.72         613 
 65.74         569 
 65.76         577 
 65.78         526 
 65.8          493 
 65.82         448 
 65.84         445 
 65.86         391 
 65.88         337 
 65.9          331 
 65.92         312 
 65.94         210 
 65.96         214 
 65.98         161 
 66            167 
 66.02         107 
 66.04         94 
 66.06         109 
 66.08         97 
 66.1          77 
 66.12         88 
 66.14         90 
 66.16         72 
 66.18         56 
 66.2          65 
 66.22         73 
 66.24         64 
 66.26         49 
 66.28         63 
 66.3          72 
 66.32         65 
 66.34         50 
 66.36         62 
 66.38         53 
 66.4          60 
 66.42         49 
 66.44         60 
 66.46         54 
 66.48         59 
 66.5          47 
 66.52         49 
 66.54         52 
 66.56         55 
 66.58         51 
 66.6          58 
 66.62         59 
 66.64         48 
 66.66         57 
 66.68         48 
 66.7          52 
 66.72         52 
 66.74         49 
 66.76         47 
 66.78         66 
 66.8          42 
 66.82         55 
 66.84         46 
 66.86         59 
 66.88         59 
 66.9          38 
 66.92         40 
 66.94         58 
 66.96         49 
 66.98         55 
 67            61 
 67.02         45 
 67.04         49 
 67.06         56 
 67.08         44 
 67.1          52 
 67.12         59 
 67.14         56 
 67.16         54 
 67.18         57 
 67.2          54 
 67.22         59 
 67.24         50 
 67.26         72 
 67.28         65 
 67.3          69 
 67.32         59 
 67.34         52 
 67.36         54 
 67.38         91 
 67.4          78 
 67.42         70 
 67.44         68 
 67.46         75 
 67.48         83 
 67.5          82 
 67.52         96 
 67.54         118 
 67.56         132 
 67.58         145 
 67.6          169 
 67.62         211 
 67.64         234 
 67.66         288 
 67.68         283 
 67.7          280 
 67.72         288 
 67.74         330 
 67.76         341 
 67.78         356 
 67.8          393 
 67.82         388 
 67.84         492 
 67.86         519 
 67.88         597 
 67.9          586 
 67.92         576 
 67.94         624 
 67.96         623 
 67.98         576 
 68            565 
 68.02         560 
 68.04         498 
 68.06         506 
 68.08         500 
 68.1          486 
 68.12         404 
 68.14         422 
 68.16         377 
 68.18         325 
 68.2          302 
 68.22         289 
 68.24         256 
 68.26         204 
 68.28         220 
 68.3          162 
 68.32         142 
 68.34         131 
 68.36         126 
 68.38         108 
 68.4          117 
 68.42         112 
 68.44         83 
 68.46         70 
 68.48         99 
 68.5          85 
 68.52         61 
 68.54         75 
 68.56         86 
 68.58         98 
 68.6          75 
 68.62         76 
 68.64         91 
 68.66         78 
 68.68         85 
 68.7          104 
 68.72         93 
 68.74         101 
 68.76         100 
 68.78         104 
 68.8          134 
 68.82         138 
 68.84         137 
 68.86         140 
 68.88         161 
 68.9          189 
 68.92         215 
 68.94         247 
 68.96         269 
 68.98         277 
 69            298 
 69.02         330 
 69.04         332 
 69.06         342 
 69.08         351 
 69.1          365 
 69.12         365 
 69.14         379 
 69.16         327 
 69.18         403 
 69.2          363 
 69.22         395 
 69.24         372 
 69.26         387 
 69.28         370 
 69.3          396 
 69.32         342 
 69.34         315 
 69.36         330 
 69.38         352 
 69.4          317 
 69.42         322 
 69.44         302 
 69.46         314 
 69.48         296 
 69.5          300 
 69.52         332 
 69.54         349 
 69.56         367 
 69.58         404 
 69.6          426 
 69.62         427 
 69.64         465 
 69.66         486 
 69.68         446 
 69.7          383 
 69.72         414 
 69.74         375 
 69.76         348 
 69.78         317 
 69.8          305 
 69.82         303 
 69.84         262 
 69.86         275 
 69.88         247 
 69.9          224 
 69.92         193 
 69.94         196 
 69.96         137 
 69.98         138 
 70            104 
 70.02         93 
 70.04         82 
 70.06         109 
 70.08         73 
 70.1          61 
 70.12         64 
 70.14         64 
 70.16         53 
 70.18         60 
 70.2          46 
 70.22         51 
 70.24         57 
 70.26         65 
 70.28         56 
 70.3          62 
 70.32         48 
 70.34         60 
 70.36         63 
 70.38         49 
 70.4          52 
 70.42         46 
 70.44         50 
 70.46         47 
 70.48         59 
 70.5          50 
 70.52         53 
 70.54         47 
 70.56         66 
 70.58         57 
 70.6          50 
 70.62         43 
 70.64         36 
 70.66         37 
 70.68         40 
 70.7          49 
 70.72         52 
 70.74         48 
 70.76         54 
 70.78         48 
 70.8          49 
 70.82         44 
 70.84         53 
 70.86         57 
 70.88         52 
 70.9          42 
 70.92         51 
 70.94         50 
 70.96         42 
 70.98         57 
 71            54 
 71.02         53 
 71.04         49 
 71.06         49 
 71.08         49 
 71.1          44 
 71.12         54 
 71.14         62 
 71.16         53 
 71.18         49 
 71.2          71 
 71.22         53 
 71.24         66 
 71.26         56 
 71.28         58 
 71.3          78 
 71.32         80 
 71.34         84 
 71.36         100 
 71.38         128 
 71.4          129 
 71.42         150 
 71.44         155 
 71.46         174 
 71.48         171 
 71.5          215 
 71.52         230 
 71.54         244 
 71.56         242 
 71.58         242 
 71.6          219 
 71.62         292 
 71.64         219 
 71.66         217 
 71.68         256 
 71.7          219 
 71.72         196 
 71.74         205 
 71.76         164 
 71.78         185 
 71.8          163 
 71.82         140 
 71.84         131 
 71.86         143 
 71.88         146 
 71.9          141 
 71.92         133 
 71.94         129 
 71.96         142 
 71.98         173 
 72            181 
 72.02         194 
 72.04         225 
 72.06         233 
 72.08         279 
 72.1          330 
 72.12         317 
 72.14         327 
 72.16         309 
 72.18         336 
 72.2          327 
 72.22         341 
 72.24         305 
 72.26         307 
 72.28         281 
 72.3          291 
 72.32         272 
 72.34         240 
 72.36         251 
 72.38         222 
 72.4          238 
 72.42         239 
 72.44         187 
 72.46         211 
 72.48         178 
 72.5          189 
 72.52         172 
 72.54         193 
 72.56         196 
 72.58         195 
 72.6          177 
 72.62         192 
 72.64         214 
 72.66         182 
 72.68         196 
 72.7          223 
 72.72         233 
 72.74         212 
 72.76         223 
 72.78         267 
 72.8          203 
 72.82         224 
 72.84         217 
 72.86         253 
 72.88         231 
 72.9          223 
 72.92         222 
 72.94         218 
 72.96         231 
 72.98         191 
 73            212 
 73.02         187 
 73.04         193 
 73.06         201 
 73.08         183 
 73.1          158 
 73.12         167 
 73.14         204 
 73.16         185 
 73.18         212 
 73.2          223 
 73.22         252 
 73.24         300 
 73.26         259 
 73.28         281 
 73.3          318 
 73.32         360 
 73.34         339 
 73.36         413 
 73.38         449 
 73.4          435 
 73.42         452 
 73.44         417 
 73.46         452 
 73.48         433 
 73.5          418 
 73.52         432 
 73.54         427 
 73.56         439 
 73.58         414 
 73.6          439 
 73.62         403 
 73.64         428 
 73.66         432 
 73.68         443 
 73.7          428 
 73.72         440 
 73.74         433 
 73.76         447 
 73.78         442 
 73.8          449 
 73.82         427 
 73.84         448 
 73.86         373 
 73.88         409 
 73.9          428 
 73.92         356 
 73.93999      342 
 73.96         330 
 73.98         337 
 74            284 
 74.02         318 
 74.04         264 
 74.06         247 
 74.08         235 
 74.1          229 
 74.12         192 
 74.14         178 
 74.16         164 
 74.18         141 
 74.2          119 
 74.22         107 
 74.24         105 
 74.26         99 
 74.28         87 
 74.3          84 
 74.32         85 
 74.34         93 
 74.36         75 
 74.38         76 
 74.4          80 
 74.42         77 
 74.43999      73 
 74.46         49 
 74.48         72 
 74.5          55 
 74.52         51 
 74.54         53 
 74.56         35 
 74.58         40 
 74.6          49 
 74.62         55 
 74.64         43 
 74.66         53 
 74.68         42 
 74.7          47 
 74.72         60 
 74.74         44 
 74.76         48 
 74.78         50 
 74.8          47 
 74.82         63 
 74.84         49 
 74.86         58 
 74.88         43 
 74.9          51 
 74.92         42 
 74.93999      55 
 74.96         38 
 74.98         50 
 75            46 
