LAGP-900-3  Original Data
 3151 
 12            379 
 12.02         347 
 12.04         431 
 12.06         361 
 12.08         427 
 12.1          352 
 12.12         399 
 12.14         381 
 12.16         416 
 12.18         425 
 12.2          390 
 12.22         385 
 12.24         392 
 12.26         378 
 12.28         368 
 12.3          382 
 12.32         381 
 12.34         432 
 12.36         357 
 12.38         430 
 12.4          361 
 12.42         405 
 12.44         373 
 12.46         411 
 12.48         386 
 12.5          361 
 12.52         416 
 12.54         388 
 12.56         394 
 12.58         346 
 12.6          389 
 12.62         367 
 12.64         443 
 12.66         358 
 12.68         407 
 12.7          390 
 12.72         431 
 12.74         388 
 12.76         392 
 12.78         397 
 12.8          393 
 12.82         434 
 12.84         348 
 12.86         412 
 12.88         374 
 12.9          410 
 12.92         372 
 12.94         400 
 12.96         369 
 12.98         413 
 13            385 
 13.02         409 
 13.04         374 
 13.06         339 
 13.08         383 
 13.1          389 
 13.12         377 
 13.14         380 
 13.16         402 
 13.18         378 
 13.2          433 
 13.22         350 
 13.24         379 
 13.26         346 
 13.28         371 
 13.3          375 
 13.32         400 
 13.34         377 
 13.36         392 
 13.38         381 
 13.4          358 
 13.42         347 
 13.44         369 
 13.46         370 
 13.48         396 
 13.5          384 
 13.52         360 
 13.54         375 
 13.56         334 
 13.58         358 
 13.6          359 
 13.62         374 
 13.64         353 
 13.66         380 
 13.68         380 
 13.7          368 
 13.72         378 
 13.74         355 
 13.76         352 
 13.78         361 
 13.8          377 
 13.82         328 
 13.84         379 
 13.86         359 
 13.88         322 
 13.9          325 
 13.92         365 
 13.94         322 
 13.96         333 
 13.98         337 
 14            330 
 14.02         345 
 14.04         335 
 14.06         348 
 14.08         336 
 14.1          358 
 14.12         331 
 14.14         325 
 14.16         293 
 14.18         340 
 14.2          287 
 14.22         321 
 14.24         339 
 14.26         339 
 14.28         303 
 14.3          338 
 14.32         296 
 14.34         294 
 14.36         307 
 14.38         308 
 14.4          361 
 14.42         328 
 14.44         332 
 14.46         304 
 14.48         356 
 14.5          321 
 14.52         331 
 14.54         309 
 14.56         342 
 14.58         332 
 14.6          297 
 14.62         368 
 14.64         358 
 14.66         353 
 14.68         383 
 14.7          391 
 14.72         395 
 14.74         418 
 14.76         452 
 14.78         481 
 14.8          520 
 14.82         559 
 14.84         573 
 14.86         645 
 14.88         747 
 14.9          833 
 14.92         895 
 14.94         1038 
 14.96         1241 
 14.98         1313 
 15            1444 
 15.02         1485 
 15.04         1628 
 15.06         1657 
 15.08         1733 
 15.1          1685 
 15.12         1619 
 15.14         1472 
 15.16         1282 
 15.18         1087 
 15.2          892 
 15.22         666 
 15.24         558 
 15.26         439 
 15.28         380 
 15.3          290 
 15.32         293 
 15.34         277 
 15.36         265 
 15.38         278 
 15.4          246 
 15.42         266 
 15.44         284 
 15.46         242 
 15.48         243 
 15.5          244 
 15.52         261 
 15.54         256 
 15.56         269 
 15.58         246 
 15.6          257 
 15.62         237 
 15.64         251 
 15.66         231 
 15.68         244 
 15.7          272 
 15.72         259 
 15.74         255 
 15.76         260 
 15.78         239 
 15.8          258 
 15.82         240 
 15.84         252 
 15.86         258 
 15.88         225 
 15.9          209 
 15.92         212 
 15.94         234 
 15.96         256 
 15.98         216 
 16            240 
 16.02         221 
 16.04         231 
 16.06         251 
 16.08         217 
 16.1          235 
 16.12         228 
 16.14         204 
 16.16         213 
 16.18         202 
 16.2          227 
 16.22         200 
 16.24         211 
 16.26         203 
 16.28         218 
 16.3          231 
 16.32         233 
 16.34         233 
 16.36         231 
 16.38         223 
 16.4          237 
 16.42         215 
 16.44         243 
 16.46         207 
 16.48         238 
 16.5          195 
 16.52         210 
 16.54         191 
 16.56         218 
 16.58         226 
 16.6          221 
 16.62         225 
 16.64         226 
 16.66         226 
 16.68         222 
 16.7          212 
 16.72         245 
 16.74         214 
 16.76         204 
 16.78         201 
 16.8          214 
 16.82         206 
 16.84         231 
 16.86         213 
 16.88         231 
 16.9          209 
 16.92         209 
 16.94         230 
 16.96         202 
 16.98         214 
 17            231 
 17.02         208 
 17.04         192 
 17.06         209 
 17.08         191 
 17.1          247 
 17.12         221 
 17.14         201 
 17.16         220 
 17.18         222 
 17.2          205 
 17.22         217 
 17.24         223 
 17.26         194 
 17.28         232 
 17.3          220 
 17.32         218 
 17.34         238 
 17.36         227 
 17.38         243 
 17.4          219 
 17.42         218 
 17.44         215 
 17.46         259 
 17.48         236 
 17.5          221 
 17.52         234 
 17.54         209 
 17.56         179 
 17.58         226 
 17.6          209 
 17.62         209 
 17.64         207 
 17.66         216 
 17.68         219 
 17.7          214 
 17.72         184 
 17.74         217 
 17.76         215 
 17.78         216 
 17.8          205 
 17.82         185 
 17.84         218 
 17.86         221 
 17.88         198 
 17.9          239 
 17.92         218 
 17.94         204 
 17.96         197 
 17.98         237 
 18            186 
 18.02         211 
 18.04         203 
 18.06         207 
 18.08         209 
 18.1          218 
 18.12         208 
 18.14         229 
 18.16         221 
 18.18         208 
 18.2          183 
 18.22         186 
 18.24         223 
 18.26         219 
 18.28         216 
 18.3          208 
 18.32         251 
 18.34         227 
 18.36         225 
 18.38         203 
 18.4          209 
 18.42         215 
 18.44         229 
 18.46         216 
 18.48         212 
 18.5          180 
 18.52         182 
 18.54         186 
 18.56         178 
 18.58         195 
 18.6          188 
 18.62         202 
 18.64         237 
 18.66         205 
 18.68         221 
 18.7          207 
 18.72         175 
 18.74         186 
 18.76         214 
 18.78         202 
 18.8          222 
 18.82         187 
 18.84         190 
 18.86         192 
 18.88         216 
 18.9          198 
 18.92         194 
 18.94         204 
 18.96         207 
 18.98         193 
 19            188 
 19.02         182 
 19.04         194 
 19.06         178 
 19.08         182 
 19.1          185 
 19.12         205 
 19.14         205 
 19.16         178 
 19.18         218 
 19.2          201 
 19.22         185 
 19.24         209 
 19.26         209 
 19.28         193 
 19.3          188 
 19.32         176 
 19.34         169 
 19.36         179 
 19.38         193 
 19.4          169 
 19.42         195 
 19.44         191 
 19.46         208 
 19.48         199 
 19.5          190 
 19.52         178 
 19.54         183 
 19.56         207 
 19.58         203 
 19.6          193 
 19.62         184 
 19.64         196 
 19.66         171 
 19.68         186 
 19.7          200 
 19.72         185 
 19.74         190 
 19.76         186 
 19.78         179 
 19.8          191 
 19.82         193 
 19.84         177 
 19.86         187 
 19.88         194 
 19.9          183 
 19.92         206 
 19.94         174 
 19.96         157 
 19.98         197 
 20            180 
 20.02         189 
 20.04         197 
 20.06         194 
 20.08         191 
 20.1          212 
 20.12         186 
 20.14         207 
 20.16         202 
 20.18         202 
 20.2          204 
 20.22         188 
 20.24         205 
 20.26         229 
 20.28         199 
 20.3          247 
 20.32         202 
 20.34         221 
 20.36         224 
 20.38         221 
 20.4          233 
 20.42         222 
 20.44         223 
 20.46         245 
 20.48         276 
 20.5          258 
 20.52         280 
 20.54         296 
 20.56         278 
 20.58         277 
 20.6          278 
 20.62         269 
 20.64         257 
 20.66         276 
 20.68         275 
 20.7          308 
 20.72         301 
 20.74         306 
 20.76         345 
 20.78         355 
 20.8          418 
 20.82         400 
 20.84         478 
 20.86         503 
 20.88         530 
 20.9          645 
 20.92         705 
 20.94         792 
 20.96         929 
 20.98         980 
 21            1142 
 21.02         1341 
 21.04         1496 
 21.06         1715 
 21.08         2147 
 21.1          2421 
 21.12         2830 
 21.14         3279 
 21.16         3978 
 21.18         4482 
 21.2          5150 
 21.22         5478 
 21.24         6065 
 21.26         6074 
 21.28         6382 
 21.3          6298 
 21.32         5992 
 21.34         5691 
 21.36         5415 
 21.38         5194 
 21.4          4767 
 21.42         4664 
 21.44         4326 
 21.46         4566 
 21.48         4363 
 21.5          4556 
 21.52         4369 
 21.54         4138 
 21.56         3823 
 21.58         3499 
 21.6          2918 
 21.62         2349 
 21.64         1947 
 21.66         1482 
 21.68         1108 
 21.7          842 
 21.72         697 
 21.74         586 
 21.76         507 
 21.78         477 
 21.8          453 
 21.82         390 
 21.84         375 
 21.86         356 
 21.88         321 
 21.9          292 
 21.92         288 
 21.94         293 
 21.96         252 
 21.98         246 
 22            198 
 22.02         207 
 22.04         216 
 22.06         199 
 22.08         201 
 22.1          203 
 22.12         192 
 22.14         180 
 22.16         201 
 22.18         188 
 22.2          188 
 22.22         185 
 22.24         178 
 22.26         171 
 22.28         192 
 22.3          144 
 22.32         153 
 22.34         172 
 22.36         186 
 22.38         158 
 22.4          180 
 22.42         191 
 22.44         185 
 22.46         193 
 22.48         162 
 22.5          158 
 22.52         181 
 22.54         173 
 22.56         164 
 22.58         164 
 22.6          161 
 22.62         161 
 22.64         166 
 22.66         167 
 22.68         168 
 22.7          166 
 22.72         156 
 22.74         165 
 22.76         158 
 22.78         150 
 22.8          168 
 22.82         176 
 22.84         164 
 22.86         157 
 22.88         180 
 22.9          170 
 22.92         184 
 22.94         170 
 22.96         173 
 22.98         174 
 23            180 
 23.02         181 
 23.04         184 
 23.06         201 
 23.08         161 
 23.1          179 
 23.12         185 
 23.14         186 
 23.16         183 
 23.18         215 
 23.2          203 
 23.22         177 
 23.24         238 
 23.26         199 
 23.28         236 
 23.3          217 
 23.32         204 
 23.34         211 
 23.36         214 
 23.38         217 
 23.4          230 
 23.42         224 
 23.44         214 
 23.46         224 
 23.48         221 
 23.5          193 
 23.52         190 
 23.54         207 
 23.56         207 
 23.58         212 
 23.6          209 
 23.62         196 
 23.64         229 
 23.66         240 
 23.68         202 
 23.7          239 
 23.72         264 
 23.74         236 
 23.76         276 
 23.78         236 
 23.8          242 
 23.82         257 
 23.84         231 
 23.86         234 
 23.88         210 
 23.9          219 
 23.92         177 
 23.94         151 
 23.96         167 
 23.98         171 
 24            156 
 24.02         138 
 24.04         174 
 24.06         192 
 24.08         174 
 24.1          175 
 24.12         170 
 24.14         201 
 24.16         183 
 24.18         167 
 24.2          159 
 24.22         158 
 24.24         174 
 24.26         165 
 24.28         136 
 24.3          169 
 24.32         166 
 24.34         151 
 24.36         161 
 24.38         149 
 24.4          157 
 24.42         160 
 24.44         167 
 24.46         158 
 24.48         182 
 24.5          177 
 24.52         169 
 24.54         158 
 24.56         180 
 24.58         158 
 24.6          189 
 24.62         204 
 24.64         212 
 24.66         243 
 24.68         242 
 24.7          253 
 24.72         299 
 24.74         330 
 24.76         342 
 24.78         393 
 24.8          458 
 24.82         532 
 24.84         591 
 24.86         682 
 24.88         815 
 24.9          943 
 24.92         1240 
 24.94         1507 
 24.96         1815 
 24.98         2113 
 25            2689 
 25.02         3088 
 25.04         3987 
 25.06         4715 
 25.08         5401 
 25.1          6285 
 25.12         6947 
 25.14         7763 
 25.16         7951 
 25.18         8062 
 25.2          7784 
 25.22         7072 
 25.24         6270 
 25.26         5426 
 25.28         4356 
 25.3          3430 
 25.32         2447 
 25.34         1780 
 25.36         1149 
 25.38         882 
 25.4          645 
 25.42         472 
 25.44         413 
 25.46         329 
 25.48         285 
 25.5          282 
 25.52         217 
 25.54         277 
 25.56         237 
 25.58         236 
 25.6          228 
 25.62         225 
 25.64         231 
 25.66         245 
 25.68         235 
 25.7          261 
 25.72         300 
 25.74         302 
 25.76         357 
 25.78         366 
 25.8          379 
 25.82         460 
 25.84         451 
 25.86         527 
 25.88         597 
 25.9          602 
 25.92         618 
 25.94         648 
 25.96         615 
 25.98         565 
 26            615 
 26.02         530 
 26.04         509 
 26.06         463 
 26.08         390 
 26.1          351 
 26.12         314 
 26.14         246 
 26.16         268 
 26.18         228 
 26.2          214 
 26.22         222 
 26.24         212 
 26.26         193 
 26.28         208 
 26.3          206 
 26.32         226 
 26.34         244 
 26.36         263 
 26.38         234 
 26.4          215 
 26.42         199 
 26.44         241 
 26.46         209 
 26.48         178 
 26.5          188 
 26.52         207 
 26.54         201 
 26.56         146 
 26.58         168 
 26.6          150 
 26.62         128 
 26.64         130 
 26.66         150 
 26.68         138 
 26.7          137 
 26.72         153 
 26.74         133 
 26.76         150 
 26.78         135 
 26.8          122 
 26.82         125 
 26.84         140 
 26.86         135 
 26.88         139 
 26.9          122 
 26.92         140 
 26.94         146 
 26.96         153 
 26.98         130 
 27            131 
 27.02         116 
 27.04         146 
 27.06         146 
 27.08         136 
 27.1          135 
 27.12         136 
 27.14         132 
 27.16         146 
 27.18         121 
 27.2          130 
 27.22         121 
 27.24         138 
 27.26         135 
 27.28         122 
 27.3          138 
 27.32         133 
 27.34         129 
 27.36         131 
 27.38         138 
 27.4          132 
 27.42         123 
 27.44         120 
 27.46         144 
 27.48         128 
 27.5          116 
 27.52         116 
 27.54         131 
 27.56         129 
 27.58         134 
 27.6          140 
 27.62         132 
 27.64         118 
 27.66         144 
 27.68         113 
 27.7          139 
 27.72         127 
 27.74         125 
 27.76         123 
 27.78         132 
 27.8          142 
 27.82         130 
 27.84         119 
 27.86         117 
 27.88         123 
 27.9          124 
 27.92         132 
 27.94         114 
 27.96         134 
 27.98         130 
 28            151 
 28.02         121 
 28.04         114 
 28.06         133 
 28.08         119 
 28.1          134 
 28.12         140 
 28.14         128 
 28.16         138 
 28.18         142 
 28.2          142 
 28.22         138 
 28.24         138 
 28.26         118 
 28.28         126 
 28.3          132 
 28.32         146 
 28.34         133 
 28.36         140 
 28.38         125 
 28.4          130 
 28.42         120 
 28.44         118 
 28.46         120 
 28.48         126 
 28.5          143 
 28.52         132 
 28.54         107 
 28.56         139 
 28.58         125 
 28.6          142 
 28.62         131 
 28.64         126 
 28.66         143 
 28.68         144 
 28.7          131 
 28.72         131 
 28.74         143 
 28.76         148 
 28.78         162 
 28.8          143 
 28.82         122 
 28.84         159 
 28.86         143 
 28.88         138 
 28.9          147 
 28.92         149 
 28.94         138 
 28.96         189 
 28.98         164 
 29            199 
 29.02         154 
 29.04         144 
 29.06         170 
 29.08         164 
 29.1          170 
 29.12         162 
 29.14         151 
 29.16         138 
 29.18         143 
 29.2          177 
 29.22         158 
 29.24         161 
 29.26         181 
 29.28         164 
 29.3          192 
 29.32         203 
 29.34         195 
 29.36         221 
 29.38         215 
 29.4          231 
 29.42         198 
 29.44         210 
 29.46         199 
 29.48         191 
 29.5          192 
 29.52         185 
 29.54         157 
 29.56         171 
 29.58         150 
 29.6          124 
 29.62         153 
 29.64         113 
 29.66         127 
 29.68         137 
 29.7          137 
 29.72         112 
 29.74         142 
 29.76         114 
 29.78         142 
 29.8          129 
 29.82         133 
 29.84         153 
 29.86         151 
 29.88         155 
 29.9          167 
 29.92         147 
 29.94         174 
 29.96         204 
 29.98         205 
 30            201 
 30.02         206 
 30.04         251 
 30.06         234 
 30.08         292 
 30.1          339 
 30.12         383 
 30.14         446 
 30.16         489 
 30.18         639 
 30.2          725 
 30.22         877 
 30.24         1063 
 30.26         1325 
 30.28         1633 
 30.3          1996 
 30.32         2440 
 30.34         2755 
 30.36         3514 
 30.38         3937 
 30.4          4448 
 30.42         4637 
 30.44         4846 
 30.46         4799 
 30.48         4764 
 30.5          4264 
 30.52         3934 
 30.54         3159 
 30.56         2654 
 30.58         1991 
 30.6          1540 
 30.62         1107 
 30.64         770 
 30.66         634 
 30.68         426 
 30.7          332 
 30.72         300 
 30.74         269 
 30.76         209 
 30.78         233 
 30.8          206 
 30.82         206 
 30.84         185 
 30.86         174 
 30.88         163 
 30.9          157 
 30.92         186 
 30.94         161 
 30.96         158 
 30.98         149 
 31            166 
 31.02         150 
 31.04         158 
 31.06         145 
 31.08         155 
 31.1          159 
 31.12         130 
 31.14         129 
 31.16         124 
 31.18         138 
 31.2          136 
 31.22         119 
 31.24         125 
 31.26         124 
 31.28         128 
 31.3          127 
 31.32         140 
 31.34         129 
 31.36         112 
 31.38         123 
 31.4          140 
 31.42         141 
 31.44         145 
 31.46         141 
 31.48         134 
 31.5          136 
 31.52         139 
 31.54         131 
 31.56         125 
 31.58         113 
 31.6          150 
 31.62         130 
 31.64         130 
 31.66         116 
 31.68         131 
 31.7          115 
 31.72         122 
 31.74         107 
 31.76         140 
 31.78         127 
 31.8          127 
 31.82         111 
 31.84         113 
 31.86         115 
 31.88         106 
 31.9          124 
 31.92         126 
 31.94         103 
 31.96         105 
 31.98         128 
 32            112 
 32.02         105 
 32.04         114 
 32.06         116 
 32.08         113 
 32.1          119 
 32.12         120 
 32.14         134 
 32.16         116 
 32.18         107 
 32.2          115 
 32.22         113 
 32.24         101 
 32.26         115 
 32.28         101 
 32.3          116 
 32.32         109 
 32.34         122 
 32.36         85 
 32.38         118 
 32.4          124 
 32.42         117 
 32.44         112 
 32.46         104 
 32.48         105 
 32.5          110 
 32.52         129 
 32.54         87 
 32.56         120 
 32.58         106 
 32.6          109 
 32.62         109 
 32.64         104 
 32.66         102 
 32.68         78 
 32.7          107 
 32.72         123 
 32.74         133 
 32.76         112 
 32.78         111 
 32.8          115 
 32.82         129 
 32.84         119 
 32.86         111 
 32.88         108 
 32.9          139 
 32.92         125 
 32.94         145 
 32.96         142 
 32.98         162 
 33            138 
 33.02         139 
 33.04         158 
 33.06         170 
 33.08         189 
 33.1          186 
 33.12         248 
 33.14         288 
 33.16         308 
 33.18         313 
 33.2          370 
 33.22         434 
 33.24         490 
 33.26         619 
 33.28         656 
 33.3          816 
 33.32         934 
 33.34         1133 
 33.36         1260 
 33.38         1402 
 33.4          1529 
 33.42         1637 
 33.44         1713 
 33.46         1631 
 33.48         1664 
 33.5          1533 
 33.52         1374 
 33.54         1206 
 33.56         1032 
 33.58         879 
 33.6          762 
 33.62         623 
 33.64         533 
 33.66         498 
 33.68         507 
 33.7          555 
 33.72         594 
 33.74         686 
 33.76         819 
 33.78         991 
 33.8          1092 
 33.82         1487 
 33.84         1590 
 33.86         2023 
 33.88         2262 
 33.9          2681 
 33.92         2903 
 33.94         3328 
 33.96         3398 
 33.98         3538 
 34            3530 
 34.02         3097 
 34.04         2945 
 34.06         2532 
 34.08         2304 
 34.1          1832 
 34.12         1522 
 34.14         1248 
 34.16         955 
 34.18         708 
 34.2          549 
 34.22         389 
 34.24         344 
 34.26         276 
 34.28         219 
 34.3          211 
 34.32         190 
 34.34         178 
 34.36         153 
 34.38         164 
 34.4          162 
 34.42         151 
 34.44         133 
 34.46         146 
 34.48         137 
 34.5          146 
 34.52         161 
 34.54         116 
 34.56         125 
 34.58         135 
 34.6          123 
 34.62         131 
 34.64         115 
 34.66         110 
 34.68         117 
 34.7          99 
 34.72         106 
 34.74         108 
 34.76         114 
 34.78         110 
 34.8          108 
 34.82         99 
 34.84         125 
 34.86         107 
 34.88         108 
 34.9          102 
 34.92         83 
 34.94         125 
 34.96         107 
 34.98         94 
 35            109 
 35.02         105 
 35.04         115 
 35.06         113 
 35.08         99 
 35.1          104 
 35.12         103 
 35.14         112 
 35.16         91 
 35.18         108 
 35.2          124 
 35.22         122 
 35.24         100 
 35.26         105 
 35.28         138 
 35.3          129 
 35.32         108 
 35.34         106 
 35.36         121 
 35.38         124 
 35.4          117 
 35.42         130 
 35.44         147 
 35.46         127 
 35.48         138 
 35.5          125 
 35.52         134 
 35.54         142 
 35.56         137 
 35.58         126 
 35.6          128 
 35.62         127 
 35.64         150 
 35.66         131 
 35.68         134 
 35.7          137 
 35.72         157 
 35.74         152 
 35.76         170 
 35.78         157 
 35.8          151 
 35.82         165 
 35.84         160 
 35.86         175 
 35.88         150 
 35.9          155 
 35.92         164 
 35.94         204 
 35.96         183 
 35.98         165 
 36            159 
 36.02         149 
 36.04         175 
 36.06         138 
 36.08         135 
 36.1          159 
 36.12         130 
 36.14         153 
 36.16         110 
 36.18         146 
 36.2          103 
 36.22         98 
 36.24         103 
 36.26         100 
 36.28         119 
 36.3          131 
 36.32         103 
 36.34         115 
 36.36         124 
 36.38         98 
 36.4          95 
 36.42         105 
 36.44         91 
 36.46         101 
 36.48         119 
 36.5          88 
 36.52         101 
 36.54         95 
 36.56         105 
 36.58         105 
 36.6          109 
 36.62         98 
 36.64         81 
 36.66         100 
 36.68         116 
 36.7          90 
 36.72         102 
 36.74         100 
 36.76         107 
 36.78         115 
 36.8          115 
 36.82         98 
 36.84         110 
 36.86         105 
 36.88         113 
 36.9          124 
 36.92         130 
 36.94         149 
 36.96         147 
 36.98         124 
 37            137 
 37.02         154 
 37.04         167 
 37.06         163 
 37.08         187 
 37.1          191 
 37.12         182 
 37.14         187 
 37.16         188 
 37.18         219 
 37.2          219 
 37.22         248 
 37.24         200 
 37.26         257 
 37.28         260 
 37.3          317 
 37.32         345 
 37.34         373 
 37.36         436 
 37.38         500 
 37.4          600 
 37.42         756 
 37.44         854 
 37.46         1067 
 37.48         1276 
 37.5          1572 
 37.52         1657 
 37.54         2082 
 37.56         2299 
 37.58         2553 
 37.6          2705 
 37.62         2887 
 37.64         2832 
 37.66         2985 
 37.68         2981 
 37.7          2889 
 37.72         2788 
 37.74         2575 
 37.76         2473 
 37.78         2245 
 37.8          2167 
 37.82         1758 
 37.84         1529 
 37.86         1279 
 37.88         1091 
 37.9          885 
 37.92         726 
 37.94         600 
 37.96         465 
 37.98         393 
 38            304 
 38.02         277 
 38.04         250 
 38.06         232 
 38.08         210 
 38.1          233 
 38.12         211 
 38.14         234 
 38.16         216 
 38.18         210 
 38.2          196 
 38.22         191 
 38.24         154 
 38.26         170 
 38.28         163 
 38.3          144 
 38.32         137 
 38.34         106 
 38.36         118 
 38.38         112 
 38.4          107 
 38.42         108 
 38.44         138 
 38.46         129 
 38.48         127 
 38.5          103 
 38.52         108 
 38.54         117 
 38.56         112 
 38.58         104 
 38.6          114 
 38.62         105 
 38.64         116 
 38.66         123 
 38.68         120 
 38.7          99 
 38.72         94 
 38.74         99 
 38.76         106 
 38.78         131 
 38.8          105 
 38.82         125 
 38.84         104 
 38.86         123 
 38.88         103 
 38.9          78 
 38.92         116 
 38.94         98 
 38.96         108 
 38.98         138 
 39            117 
 39.02         106 
 39.04         142 
 39.06         117 
 39.08         125 
 39.1          101 
 39.12         138 
 39.14         126 
 39.16         110 
 39.18         133 
 39.2          109 
 39.22         132 
 39.24         144 
 39.26         109 
 39.28         162 
 39.3          140 
 39.32         166 
 39.34         148 
 39.36         156 
 39.38         180 
 39.4          133 
 39.42         155 
 39.44         183 
 39.46         170 
 39.48         165 
 39.5          177 
 39.52         145 
 39.54         141 
 39.56         166 
 39.58         142 
 39.6          151 
 39.62         151 
 39.64         139 
 39.66         137 
 39.68         153 
 39.7          152 
 39.72         148 
 39.74         131 
 39.76         160 
 39.78         129 
 39.8          140 
 39.82         175 
 39.84         163 
 39.86         184 
 39.88         138 
 39.9          154 
 39.92         202 
 39.94         192 
 39.96         177 
 39.98         210 
 40            228 
 40.02         223 
 40.04         208 
 40.06         246 
 40.08         246 
 40.1          233 
 40.12         190 
 40.14         220 
 40.16         178 
 40.18         192 
 40.2          160 
 40.22         147 
 40.24         143 
 40.26         134 
 40.28         140 
 40.3          124 
 40.32         115 
 40.34         130 
 40.36         120 
 40.38         136 
 40.4          135 
 40.42         122 
 40.44         88 
 40.46         103 
 40.48         111 
 40.5          92 
 40.52         115 
 40.54         100 
 40.56         107 
 40.58         130 
 40.6          119 
 40.62         101 
 40.64         99 
 40.66         103 
 40.68         93 
 40.7          94 
 40.72         115 
 40.74         112 
 40.76         88 
 40.78         139 
 40.8          82 
 40.82         95 
 40.84         105 
 40.86         109 
 40.88         118 
 40.9          94 
 40.92         95 
 40.94         102 
 40.96         103 
 40.98         100 
 41            105 
 41.02         99 
 41.04         103 
 41.06         104 
 41.08         114 
 41.1          111 
 41.12         87 
 41.14         105 
 41.16         105 
 41.18         111 
 41.2          114 
 41.22         115 
 41.24         101 
 41.26         135 
 41.28         99 
 41.3          100 
 41.32         98 
 41.34         100 
 41.36         89 
 41.38         123 
 41.4          100 
 41.42         122 
 41.44         123 
 41.46         110 
 41.48         117 
 41.5          123 
 41.52         113 
 41.54         110 
 41.56         109 
 41.58         131 
 41.6          117 
 41.62         152 
 41.64         140 
 41.66         154 
 41.68         146 
 41.7          153 
 41.72         159 
 41.74         150 
 41.76         151 
 41.78         158 
 41.8          151 
 41.82         124 
 41.84         157 
 41.86         126 
 41.88         134 
 41.9          161 
 41.92         164 
 41.94         123 
 41.96         94 
 41.98         100 
 42            118 
 42.02         122 
 42.04         126 
 42.06         111 
 42.08         102 
 42.1          107 
 42.12         112 
 42.14         102 
 42.16         106 
 42.18         109 
 42.2          110 
 42.22         112 
 42.24         106 
 42.26         107 
 42.28         121 
 42.3          98 
 42.32         105 
 42.34         123 
 42.36         117 
 42.38         114 
 42.4          104 
 42.42         97 
 42.44         117 
 42.46         124 
 42.48         98 
 42.5          89 
 42.52         100 
 42.54         111 
 42.56         117 
 42.58         104 
 42.6          104 
 42.62         103 
 42.64         118 
 42.66         114 
 42.68         106 
 42.7          100 
 42.72         123 
 42.74         122 
 42.76         124 
 42.78         121 
 42.8          85 
 42.82         105 
 42.84         106 
 42.86         129 
 42.88         128 
 42.9          130 
 42.92         128 
 42.94         148 
 42.96         138 
 42.98         159 
 43            129 
 43.02         155 
 43.04         153 
 43.06         176 
 43.08         197 
 43.1          183 
 43.12         188 
 43.14         220 
 43.16         242 
 43.18         272 
 43.2          341 
 43.22         341 
 43.24         408 
 43.26         442 
 43.28         460 
 43.3          442 
 43.32         476 
 43.34         484 
 43.36         503 
 43.38         427 
 43.4          406 
 43.42         360 
 43.44         335 
 43.46         335 
 43.48         289 
 43.5          256 
 43.52         217 
 43.54         240 
 43.56         177 
 43.58         167 
 43.6          182 
 43.62         139 
 43.64         128 
 43.66         133 
 43.68         114 
 43.7          121 
 43.72         128 
 43.74         129 
 43.76         134 
 43.78         128 
 43.8          114 
 43.82         128 
 43.84         144 
 43.86         118 
 43.88         131 
 43.9          127 
 43.92         137 
 43.94         127 
 43.96         120 
 43.98         112 
 44            109 
 44.02         98 
 44.04         108 
 44.06         113 
 44.08         111 
 44.1          114 
 44.12         105 
 44.14         103 
 44.16         83 
 44.18         100 
 44.2          113 
 44.22         104 
 44.24         89 
 44.26         106 
 44.28         94 
 44.3          100 
 44.32         110 
 44.34         88 
 44.36         115 
 44.38         102 
 44.4          87 
 44.42         99 
 44.44         112 
 44.46         89 
 44.48         109 
 44.5          115 
 44.52         107 
 44.54         94 
 44.56         111 
 44.58         106 
 44.6          112 
 44.62         96 
 44.64         107 
 44.66         107 
 44.68         100 
 44.7          98 
 44.72         100 
 44.74         110 
 44.76         99 
 44.78         109 
 44.8          122 
 44.82         95 
 44.84         111 
 44.86         112 
 44.88         122 
 44.9          143 
 44.92         125 
 44.94         127 
 44.96         127 
 44.98         124 
 45            143 
 45.02         151 
 45.04         163 
 45.06         171 
 45.08         204 
 45.1          186 
 45.12         259 
 45.14         274 
 45.16         374 
 45.18         357 
 45.2          400 
 45.22         460 
 45.24         511 
 45.26         568 
 45.28         590 
 45.3          626 
 45.32         612 
 45.34         625 
 45.36         600 
 45.38         619 
 45.4          570 
 45.42         567 
 45.44         498 
 45.46         502 
 45.48         460 
 45.5          503 
 45.52         467 
 45.54         463 
 45.56         449 
 45.58         429 
 45.6          425 
 45.62         413 
 45.64         390 
 45.66         367 
 45.68         369 
 45.7          359 
 45.72         364 
 45.74         383 
 45.76         400 
 45.78         451 
 45.8          450 
 45.82         441 
 45.84         495 
 45.86         491 
 45.88         457 
 45.9          563 
 45.92         500 
 45.94         518 
 45.96         507 
 45.98         482 
 46            450 
 46.02         405 
 46.04         360 
 46.06         321 
 46.08         282 
 46.1          257 
 46.12         256 
 46.14         204 
 46.16         195 
 46.18         207 
 46.2          186 
 46.22         194 
 46.24         193 
 46.26         167 
 46.28         205 
 46.3          205 
 46.32         214 
 46.34         234 
 46.36         245 
 46.38         257 
 46.4          264 
 46.42         248 
 46.44         260 
 46.46         302 
 46.48         297 
 46.5          314 
 46.52         283 
 46.54         323 
 46.56         314 
 46.58         348 
 46.6          335 
 46.62         323 
 46.64         369 
 46.66         364 
 46.68         328 
 46.7          325 
 46.72         296 
 46.74         276 
 46.76         284 
 46.78         264 
 46.8          206 
 46.82         210 
 46.84         160 
 46.86         140 
 46.88         149 
 46.9          154 
 46.92         149 
 46.94         131 
 46.96         120 
 46.98         111 
 47            105 
 47.02         103 
 47.04         134 
 47.06         128 
 47.08         108 
 47.1          104 
 47.12         97 
 47.14         115 
 47.16         120 
 47.18         109 
 47.2          109 
 47.22         105 
 47.24         84 
 47.26         122 
 47.28         114 
 47.3          111 
 47.32         95 
 47.34         123 
 47.36         115 
 47.38         97 
 47.4          125 
 47.42         112 
 47.44         130 
 47.46         113 
 47.48         132 
 47.5          109 
 47.52         113 
 47.54         97 
 47.56         117 
 47.58         108 
 47.6          94 
 47.62         99 
 47.64         104 
 47.66         107 
 47.68         113 
 47.7          101 
 47.72         115 
 47.74         95 
 47.76         95 
 47.78         112 
 47.8          98 
 47.82         112 
 47.84         112 
 47.86         76 
 47.88         101 
 47.9          112 
 47.92         87 
 47.94         112 
 47.96         111 
 47.98         115 
 48            125 
 48.02         96 
 48.04         113 
 48.06         97 
 48.08         120 
 48.1          103 
 48.12         115 
 48.14         97 
 48.16         112 
 48.18         102 
 48.2          130 
 48.22         128 
 48.24         128 
 48.26         137 
 48.28         112 
 48.3          122 
 48.32         140 
 48.34         153 
 48.36         182 
 48.38         145 
 48.4          178 
 48.42         182 
 48.44         175 
 48.46         194 
 48.48         197 
 48.5          236 
 48.52         225 
 48.54         268 
 48.56         248 
 48.58         301 
 48.6          369 
 48.62         420 
 48.64         448 
 48.66         573 
 48.68         680 
 48.7          744 
 48.72         935 
 48.74         1005 
 48.76         1255 
 48.78         1354 
 48.8          1569 
 48.82         1642 
 48.84         1843 
 48.86         1923 
 48.88         1939 
 48.9          1961 
 48.92         1872 
 48.94         1801 
 48.96         1689 
 48.98         1561 
 49            1390 
 49.02         1242 
 49.04         1138 
 49.06         1073 
 49.08         1030 
 49.1          1007 
 49.12         1020 
 49.14         1027 
 49.16         1066 
 49.18         1118 
 49.2          1187 
 49.22         1137 
 49.24         1236 
 49.26         1194 
 49.28         1179 
 49.3          1045 
 49.32         969 
 49.34         841 
 49.36         784 
 49.38         704 
 49.4          621 
 49.42         504 
 49.44         450 
 49.46         421 
 49.48         335 
 49.5          276 
 49.52         218 
 49.54         195 
 49.56         195 
 49.58         140 
 49.6          141 
 49.62         125 
 49.64         127 
 49.66         125 
 49.68         128 
 49.7          114 
 49.72         105 
 49.74         94 
 49.76         107 
 49.78         111 
 49.8          119 
 49.82         109 
 49.84         92 
 49.86         103 
 49.88         110 
 49.9          113 
 49.92         121 
 49.94         113 
 49.96         116 
 49.98         112 
 50            110 
 50.02         112 
 50.04         111 
 50.06         95 
 50.08         86 
 50.1          81 
 50.12         80 
 50.14         113 
 50.16         95 
 50.18         98 
 50.2          97 
 50.22         92 
 50.24         109 
 50.26         115 
 50.28         88 
 50.3          106 
 50.32         97 
 50.34         96 
 50.36         88 
 50.38         82 
 50.4          95 
 50.42         99 
 50.44         93 
 50.46         94 
 50.48         104 
 50.5          99 
 50.52         110 
 50.54         112 
 50.56         102 
 50.58         94 
 50.6          99 
 50.62         111 
 50.64         110 
 50.66         95 
 50.68         123 
 50.7          90 
 50.72         110 
 50.74         129 
 50.76         121 
 50.78         115 
 50.8          118 
 50.82         124 
 50.84         140 
 50.86         148 
 50.88         177 
 50.9          175 
 50.92         188 
 50.94         256 
 50.96         238 
 50.98         270 
 51            332 
 51.02         392 
 51.04         442 
 51.06         459 
 51.08         510 
 51.1          540 
 51.12         631 
 51.14         581 
 51.16         575 
 51.18         630 
 51.2          622 
 51.22         632 
 51.24         568 
 51.26         557 
 51.28         528 
 51.3          480 
 51.32         475 
 51.34         408 
 51.36         430 
 51.38         425 
 51.4          391 
 51.42         420 
 51.44         400 
 51.46         459 
 51.48         516 
 51.5          619 
 51.52         679 
 51.54         821 
 51.56         854 
 51.58         989 
 51.6          1198 
 51.62         1369 
 51.64         1481 
 51.66         1494 
 51.68         1511 
 51.7          1585 
 51.72         1561 
 51.74         1480 
 51.76         1485 
 51.78         1342 
 51.8          1295 
 51.82         1193 
 51.84         1158 
 51.86         1025 
 51.88         1019 
 51.9          942 
 51.92         873 
 51.94         762 
 51.96         706 
 51.98         686 
 52            544 
 52.02         526 
 52.04         465 
 52.06         445 
 52.08         418 
 52.1          336 
 52.12         289 
 52.14         243 
 52.16         208 
 52.18         213 
 52.2          170 
 52.22         178 
 52.24         158 
 52.26         135 
 52.28         135 
 52.3          128 
 52.32         124 
 52.34         120 
 52.36         115 
 52.38         115 
 52.4          105 
 52.42         103 
 52.44         108 
 52.46         113 
 52.48         93 
 52.5          85 
 52.52         101 
 52.54         103 
 52.56         91 
 52.58         119 
 52.6          99 
 52.62         100 
 52.64         104 
 52.66         103 
 52.68         75 
 52.7          107 
 52.72         106 
 52.74         104 
 52.76         115 
 52.78         105 
 52.8          95 
 52.82         96 
 52.84         108 
 52.86         111 
 52.88         107 
 52.9          115 
 52.92         98 
 52.94         122 
 52.96         123 
 52.98         118 
 53            129 
 53.02         115 
 53.04         139 
 53.06         126 
 53.08         124 
 53.1          137 
 53.12         132 
 53.14         156 
 53.16         163 
 53.18         177 
 53.2          167 
 53.22         199 
 53.24         199 
 53.26         240 
 53.28         211 
 53.3          244 
 53.32         214 
 53.34         234 
 53.36         262 
 53.38         248 
 53.4          248 
 53.42         225 
 53.44         232 
 53.46         252 
 53.48         226 
 53.5          196 
 53.52         249 
 53.54         207 
 53.56         193 
 53.58         187 
 53.6          160 
 53.62         144 
 53.64         162 
 53.66         139 
 53.68         108 
 53.7          132 
 53.72         113 
 53.74         101 
 53.76         128 
 53.78         123 
 53.8          99 
 53.82         104 
 53.84         121 
 53.86         91 
 53.88         98 
 53.9          90 
 53.92         91 
 53.94         92 
 53.96         85 
 53.98         93 
 54            99 
 54.02         83 
 54.04         99 
 54.06         94 
 54.08         112 
 54.1          120 
 54.12         106 
 54.14         91 
 54.16         96 
 54.18         84 
 54.2          108 
 54.22         101 
 54.24         90 
 54.26         118 
 54.28         108 
 54.3          109 
 54.32         94 
 54.34         89 
 54.36         112 
 54.38         90 
 54.4          105 
 54.42         98 
 54.44         93 
 54.46         109 
 54.48         83 
 54.5          95 
 54.52         97 
 54.54         92 
 54.56         86 
 54.58         100 
 54.6          98 
 54.62         108 
 54.64         98 
 54.66         87 
 54.68         78 
 54.7          100 
 54.72         104 
 54.74         68 
 54.76         94 
 54.78         91 
 54.8          91 
 54.82         89 
 54.84         84 
 54.86         103 
 54.88         89 
 54.9          108 
 54.92         81 
 54.94         103 
 54.96         89 
 54.98         75 
 55            91 
 55.02         85 
 55.04         98 
 55.06         91 
 55.08         89 
 55.1          88 
 55.12         87 
 55.14         77 
 55.16         81 
 55.18         100 
 55.2          82 
 55.22         91 
 55.24         95 
 55.26         102 
 55.28         106 
 55.3          94 
 55.32         119 
 55.34         94 
 55.36         86 
 55.38         94 
 55.4          127 
 55.42         117 
 55.44         96 
 55.46         102 
 55.48         125 
 55.5          126 
 55.52         143 
 55.54         131 
 55.56         116 
 55.58         129 
 55.6          131 
 55.62         152 
 55.64         155 
 55.66         169 
 55.68         204 
 55.7          201 
 55.72         250 
 55.74         272 
 55.76         307 
 55.78         338 
 55.8          440 
 55.82         455 
 55.84         511 
 55.86         585 
 55.88         605 
 55.9          681 
 55.92         824 
 55.94         827 
 55.96         890 
 55.98         874 
 56            1028 
 56.02         1052 
 56.04         1116 
 56.06         1240 
 56.08         1183 
 56.1          1348 
 56.12         1285 
 56.14         1403 
 56.16         1361 
 56.18         1340 
 56.2          1210 
 56.22         1262 
 56.24         1184 
 56.26         1137 
 56.28         1018 
 56.3          918 
 56.32         862 
 56.34         745 
 56.36         722 
 56.38         595 
 56.4          503 
 56.42         446 
 56.44         421 
 56.46         323 
 56.48         306 
 56.5          229 
 56.52         234 
 56.54         197 
 56.56         197 
 56.58         160 
 56.6          137 
 56.62         155 
 56.64         153 
 56.66         106 
 56.68         143 
 56.7          119 
 56.72         111 
 56.74         116 
 56.76         125 
 56.78         113 
 56.8          123 
 56.82         107 
 56.84         110 
 56.86         107 
 56.88         106 
 56.9          105 
 56.92         95 
 56.94         122 
 56.96         113 
 56.98         109 
 57            111 
 57.02         114 
 57.04         90 
 57.06         88 
 57.08         97 
 57.1          90 
 57.12         121 
 57.14         86 
 57.16         98 
 57.18         86 
 57.2          103 
 57.22         93 
 57.24         95 
 57.26         86 
 57.28         95 
 57.3          114 
 57.32         98 
 57.34         97 
 57.36         107 
 57.38         102 
 57.4          97 
 57.42         83 
 57.44         105 
 57.46         112 
 57.48         100 
 57.5          108 
 57.52         90 
 57.54         86 
 57.56         108 
 57.58         92 
 57.6          95 
 57.62         105 
 57.64         111 
 57.66         108 
 57.68         89 
 57.7          97 
 57.72         103 
 57.74         99 
 57.76         104 
 57.78         99 
 57.8          107 
 57.82         109 
 57.84         96 
 57.86         127 
 57.88         128 
 57.9          118 
 57.92         106 
 57.94         125 
 57.96         138 
 57.98         169 
 58            149 
 58.02         200 
 58.04         187 
 58.06         223 
 58.08         203 
 58.1          246 
 58.12         261 
 58.14         291 
 58.16         288 
 58.18         311 
 58.2          346 
 58.22         312 
 58.24         312 
 58.26         324 
 58.28         336 
 58.3          292 
 58.32         348 
 58.34         288 
 58.36         318 
 58.38         282 
 58.4          285 
 58.42         302 
 58.44         267 
 58.46         268 
 58.48         274 
 58.5          296 
 58.52         317 
 58.54         354 
 58.56         402 
 58.58         423 
 58.6          491 
 58.62         586 
 58.64         652 
 58.66         824 
 58.68         828 
 58.7          905 
 58.72         1006 
 58.74         1166 
 58.76         1206 
 58.78         1180 
 58.8          1232 
 58.82         1232 
 58.84         1227 
 58.86         1245 
 58.88         1177 
 58.9          1137 
 58.92         1213 
 58.94         1292 
 58.96         1381 
 58.98         1436 
 59            1470 
 59.02         1644 
 59.04         1680 
 59.06         1853 
 59.08         1877 
 59.1          2059 
 59.12         1995 
 59.14         2141 
 59.16         2112 
 59.18         2182 
 59.2          2131 
 59.22         2112 
 59.24         2037 
 59.26         1978 
 59.28         1760 
 59.3          1697 
 59.32         1465 
 59.34         1356 
 59.36         1222 
 59.38         1060 
 59.4          957 
 59.42         844 
 59.44         757 
 59.46         570 
 59.48         478 
 59.5          456 
 59.52         393 
 59.54         290 
 59.56         287 
 59.58         242 
 59.6          189 
 59.62         163 
 59.64         177 
 59.66         159 
 59.68         156 
 59.7          137 
 59.72         136 
 59.74         126 
 59.76         110 
 59.78         130 
 59.8          128 
 59.82         130 
 59.84         130 
 59.86         124 
 59.88         107 
 59.9          106 
 59.92         106 
 59.94         108 
 59.96         105 
 59.98         91 
 60            125 
 60.02         108 
 60.04         128 
 60.06         103 
 60.08         124 
 60.1          114 
 60.12         127 
 60.14         129 
 60.16         114 
 60.18         111 
 60.2          116 
 60.22         128 
 60.24         157 
 60.26         141 
 60.28         157 
 60.3          170 
 60.32         194 
 60.34         173 
 60.36         192 
 60.38         200 
 60.4          231 
 60.42         209 
 60.44         198 
 60.46         197 
 60.48         228 
 60.5          220 
 60.52         207 
 60.54         219 
 60.56         239 
 60.58         251 
 60.6          296 
 60.62         265 
 60.64         316 
 60.66         335 
 60.68         385 
 60.7          385 
 60.72         421 
 60.74         421 
 60.76         506 
 60.78         486 
 60.8          523 
 60.82         554 
 60.84         564 
 60.86         605 
 60.88         566 
 60.9          532 
 60.92         488 
 60.94         492 
 60.96         455 
 60.98         442 
 61            389 
 61.02         342 
 61.04         344 
 61.06         295 
 61.08         250 
 61.1          253 
 61.12         209 
 61.14         181 
 61.16         174 
 61.18         153 
 61.2          120 
 61.22         151 
 61.24         115 
 61.26         124 
 61.28         114 
 61.3          92 
 61.32         93 
 61.34         115 
 61.36         103 
 61.38         108 
 61.4          95 
 61.42         97 
 61.44         106 
 61.46         122 
 61.48         102 
 61.5          103 
 61.52         93 
 61.54         82 
 61.56         115 
 61.58         114 
 61.6          92 
 61.62         98 
 61.64         103 
 61.66         92 
 61.68         99 
 61.7          94 
 61.72         98 
 61.74         114 
 61.76         109 
 61.78         95 
 61.8          95 
 61.82         94 
 61.84         104 
 61.86         105 
 61.88         84 
 61.9          83 
 61.92         109 
 61.94         86 
 61.96         80 
 61.98         97 
 62            85 
 62.02         99 
 62.04         84 
 62.06         93 
 62.08         69 
 62.1          91 
 62.12         84 
 62.14         72 
 62.16         81 
 62.18         74 
 62.2          72 
 62.22         86 
 62.24         99 
 62.26         81 
 62.28         75 
 62.3          90 
 62.32         74 
 62.34         93 
 62.36         91 
 62.38         86 
 62.4          85 
 62.42         85 
 62.44         73 
 62.46         82 
 62.48         86 
 62.5          89 
 62.52         67 
 62.54         82 
 62.56         84 
 62.58         88 
 62.6          80 
 62.62         86 
 62.64         85 
 62.66         74 
 62.68         90 
 62.7          93 
 62.72         105 
 62.74         73 
 62.76         103 
 62.78         96 
 62.8          92 
 62.82         88 
 62.84         86 
 62.86         105 
 62.88         86 
 62.9          110 
 62.92         82 
 62.94         100 
 62.96         93 
 62.98         109 
 63            118 
 63.02         129 
 63.04         123 
 63.06         148 
 63.08         160 
 63.1          145 
 63.12         208 
 63.14         211 
 63.16         230 
 63.18         264 
 63.2          302 
 63.22         336 
 63.24         395 
 63.26         448 
 63.28         505 
 63.3          521 
 63.32         497 
 63.34         548 
 63.36         485 
 63.38         489 
 63.4          467 
 63.42         462 
 63.44         477 
 63.46         392 
 63.48         405 
 63.5          377 
 63.52         360 
 63.54         336 
 63.56         290 
 63.58         263 
 63.6          219 
 63.62         210 
 63.64         157 
 63.66         137 
 63.68         136 
 63.7          167 
 63.72         130 
 63.74         125 
 63.76         111 
 63.78         108 
 63.8          101 
 63.82         90 
 63.84         99 
 63.86         92 
 63.88         96 
 63.9          99 
 63.92         104 
 63.94         100 
 63.96         93 
 63.98         103 
 64            95 
 64.02         83 
 64.04         91 
 64.06         96 
 64.08         98 
 64.1          89 
 64.12         98 
 64.14         120 
 64.16         98 
 64.18         115 
 64.2          112 
 64.22         93 
 64.24         98 
 64.26         95 
 64.28         115 
 64.3          105 
 64.32         120 
 64.34         110 
 64.36         131 
 64.38         131 
 64.4          134 
 64.42         151 
 64.44         148 
 64.46         152 
 64.48         177 
 64.5          179 
 64.52         211 
 64.54         197 
 64.56         216 
 64.58         226 
 64.6          222 
 64.62         224 
 64.64         262 
 64.66         266 
 64.68         285 
 64.7          295 
 64.72         296 
 64.74         302 
 64.76         274 
 64.78         272 
 64.8          280 
 64.82         258 
 64.84         294 
 64.86         294 
 64.88         264 
 64.9          238 
 64.92         289 
 64.94         300 
 64.96         282 
 64.98         333 
 65            367 
 65.02         355 
 65.04         371 
 65.06         448 
 65.08         431 
 65.1          477 
 65.12         535 
 65.14         528 
 65.16         592 
 65.18         656 
 65.2          761 
 65.22         805 
 65.24         890 
 65.26         916 
 65.28         951 
 65.3          921 
 65.32         1007 
 65.34         971 
 65.36         945 
 65.38         914 
 65.4          926 
 65.42         837 
 65.44         869 
 65.46         786 
 65.48         786 
 65.5          762 
 65.52         692 
 65.54         725 
 65.56         713 
 65.58         715 
 65.6          736 
 65.62         767 
 65.64         791 
 65.66         795 
 65.68         772 
 65.7          833 
 65.72         865 
 65.74         903 
 65.76         799 
 65.78         776 
 65.8          731 
 65.82         724 
 65.84         683 
 65.86         655 
 65.88         596 
 65.9          563 
 65.92         540 
 65.94         457 
 65.96         403 
 65.98         379 
 66            385 
 66.02         312 
 66.04         272 
 66.06         268 
 66.08         244 
 66.1          222 
 66.12         189 
 66.14         154 
 66.16         159 
 66.18         162 
 66.2          161 
 66.22         147 
 66.24         148 
 66.26         122 
 66.28         114 
 66.3          119 
 66.32         102 
 66.34         124 
 66.36         102 
 66.38         112 
 66.4          117 
 66.42         129 
 66.44         104 
 66.46         104 
 66.48         115 
 66.5          106 
 66.52         97 
 66.54         90 
 66.56         99 
 66.58         112 
 66.6          109 
 66.62         79 
 66.64         124 
 66.66         103 
 66.68         96 
 66.7          101 
 66.72         98 
 66.74         94 
 66.76         104 
 66.78         106 
 66.8          113 
 66.82         81 
 66.84         119 
 66.86         117 
 66.88         116 
 66.9          111 
 66.92         101 
 66.94         108 
 66.96         107 
 66.98         115 
 67            114 
 67.02         113 
 67.04         116 
 67.06         110 
 67.08         100 
 67.1          116 
 67.12         112 
 67.14         110 
 67.16         122 
 67.18         122 
 67.2          95 
 67.22         114 
 67.24         113 
 67.26         81 
 67.28         104 
 67.3          115 
 67.32         134 
 67.34         89 
 67.36         109 
 67.38         115 
 67.4          114 
 67.42         115 
 67.44         130 
 67.46         137 
 67.48         138 
 67.5          122 
 67.52         173 
 67.54         172 
 67.56         192 
 67.58         197 
 67.6          190 
 67.62         229 
 67.64         240 
 67.66         258 
 67.68         268 
 67.7          289 
 67.72         342 
 67.74         350 
 67.76         363 
 67.78         344 
 67.8          384 
 67.82         430 
 67.84         436 
 67.86         395 
 67.88         469 
 67.9          518 
 67.92         571 
 67.94         573 
 67.96         606 
 67.98         651 
 68            646 
 68.02         673 
 68.04         617 
 68.06         695 
 68.08         663 
 68.1          671 
 68.12         670 
 68.14         657 
 68.16         644 
 68.18         660 
 68.2          568 
 68.22         557 
 68.24         499 
 68.26         507 
 68.28         470 
 68.3          425 
 68.32         383 
 68.34         374 
 68.36         337 
 68.38         305 
 68.4          294 
 68.42         216 
 68.44         232 
 68.46         171 
 68.48         198 
 68.5          184 
 68.52         172 
 68.54         172 
 68.56         183 
 68.58         144 
 68.6          169 
 68.62         176 
 68.64         194 
 68.66         200 
 68.68         215 
 68.7          199 
 68.72         217 
 68.74         231 
 68.76         251 
 68.78         295 
 68.8          297 
 68.82         327 
 68.84         312 
 68.86         394 
 68.88         454 
 68.9          481 
 68.92         458 
 68.94         514 
 68.96         513 
 68.98         540 
 69            567 
 69.02         566 
 69.04         540 
 69.06         501 
 69.08         543 
 69.1          545 
 69.12         498 
 69.14         476 
 69.16         463 
 69.18         474 
 69.2          460 
 69.22         429 
 69.24         411 
 69.26         383 
 69.28         322 
 69.3          351 
 69.32         363 
 69.34         310 
 69.36         281 
 69.38         289 
 69.4          309 
 69.42         305 
 69.44         343 
 69.46         325 
 69.48         322 
 69.5          360 
 69.52         417 
 69.54         471 
 69.56         510 
 69.58         445 
 69.6          495 
 69.62         482 
 69.64         457 
 69.66         515 
 69.68         496 
 69.7          533 
 69.72         451 
 69.74         479 
 69.76         489 
 69.78         408 
 69.8          386 
 69.82         362 
 69.84         345 
 69.86         332 
 69.88         280 
 69.9          266 
 69.92         227 
 69.94         245 
 69.96         193 
 69.98         185 
 70            165 
 70.02         148 
 70.04         143 
 70.06         123 
 70.08         111 
 70.1          121 
 70.12         123 
 70.14         130 
 70.16         127 
 70.18         114 
 70.2          123 
 70.22         117 
 70.24         99 
 70.26         121 
 70.28         85 
 70.3          95 
 70.32         95 
 70.34         101 
 70.36         88 
 70.38         100 
 70.4          91 
 70.42         111 
 70.44         94 
 70.46         87 
 70.48         100 
 70.5          87 
 70.52         98 
 70.54         91 
 70.56         87 
 70.58         98 
 70.6          88 
 70.62         85 
 70.64         81 
 70.66         74 
 70.68         87 
 70.7          96 
 70.72         83 
 70.74         79 
 70.76         93 
 70.78         78 
 70.8          67 
 70.82         95 
 70.84         65 
 70.86         93 
 70.88         93 
 70.9          89 
 70.92         80 
 70.94         83 
 70.96         80 
 70.98         77 
 71            91 
 71.02         102 
 71.04         85 
 71.06         99 
 71.08         95 
 71.1          92 
 71.12         91 
 71.14         113 
 71.16         96 
 71.18         119 
 71.2          107 
 71.22         111 
 71.24         132 
 71.26         147 
 71.28         167 
 71.3          164 
 71.32         207 
 71.34         206 
 71.36         219 
 71.38         233 
 71.4          264 
 71.42         296 
 71.44         253 
 71.46         280 
 71.48         285 
 71.5          348 
 71.52         313 
 71.54         324 
 71.56         300 
 71.58         297 
 71.6          287 
 71.62         254 
 71.64         274 
 71.66         230 
 71.68         253 
 71.7          210 
 71.72         201 
 71.74         206 
 71.76         189 
 71.78         175 
 71.8          184 
 71.82         179 
 71.84         145 
 71.86         152 
 71.88         149 
 71.9          144 
 71.92         144 
 71.94         167 
 71.96         168 
 71.98         154 
 72            153 
 72.02         173 
 72.04         211 
 72.06         218 
 72.08         240 
 72.1          272 
 72.12         283 
 72.14         289 
 72.16         315 
 72.18         360 
 72.2          375 
 72.22         393 
 72.24         448 
 72.26         482 
 72.28         481 
 72.3          474 
 72.32         469 
 72.34         531 
 72.36         525 
 72.38         511 
 72.4          495 
 72.42         497 
 72.44         475 
 72.46         489 
 72.48         471 
 72.5          465 
 72.52         430 
 72.54         425 
 72.56         454 
 72.58         414 
 72.6          437 
 72.62         430 
 72.64         374 
 72.66         380 
 72.68         344 
 72.7          341 
 72.72         305 
 72.74         292 
 72.76         267 
 72.78         266 
 72.8          241 
 72.82         266 
 72.84         208 
 72.86         269 
 72.88         235 
 72.9          237 
 72.92         212 
 72.94         214 
 72.96         246 
 72.98         245 
 73            253 
 73.02         265 
 73.04         275 
 73.06         289 
 73.08         322 
 73.1          350 
 73.12         338 
 73.14         424 
 73.16         403 
 73.18         427 
 73.2          461 
 73.22         466 
 73.24         500 
 73.26         489 
 73.28         490 
 73.3          517 
 73.32         481 
 73.34         517 
 73.36         480 
 73.38         510 
 73.4          493 
 73.42         497 
 73.44         503 
 73.46         443 
 73.48         470 
 73.5          442 
 73.52         439 
 73.54         389 
 73.56         381 
 73.58         377 
 73.6          360 
 73.62         411 
 73.64         356 
 73.66         395 
 73.68         409 
 73.7          392 
 73.72         398 
 73.74         439 
 73.76         461 
 73.78         430 
 73.8          482 
 73.82         502 
 73.84         486 
 73.86         441 
 73.88         461 
 73.9          527 
 73.92         488 
 73.93999      459 
 73.96         457 
 73.98         429 
 74            445 
 74.02         453 
 74.04         378 
 74.06         366 
 74.08         355 
 74.1          315 
 74.12         340 
 74.14         294 
 74.16         280 
 74.18         269 
 74.2          234 
 74.22         223 
 74.24         214 
 74.26         189 
 74.28         172 
 74.3          146 
 74.32         174 
 74.34         143 
 74.36         149 
 74.38         136 
 74.4          118 
 74.42         134 
 74.43999      125 
 74.46         117 
 74.48         118 
 74.5          117 
 74.52         111 
 74.54         106 
 74.56         89 
 74.58         85 
 74.6          102 
 74.62         95 
 74.64         105 
 74.66         76 
 74.68         76 
 74.7          98 
 74.72         98 
 74.74         88 
 74.76         92 
 74.78         86 
 74.8          91 
 74.82         83 
 74.84         90 
 74.86         74 
 74.88         81 
 74.9          74 
 74.92         94 
 74.93999      88 
 74.96         91 
 74.98         80 
 75            96 
