LAGP-750  Original Data
 3151 
 12            468 
 12.02         465 
 12.04         481 
 12.06         500 
 12.08         499 
 12.1          497 
 12.12         487 
 12.14         490 
 12.16         483 
 12.18         492 
 12.2          509 
 12.22         498 
 12.24         503 
 12.26         500 
 12.28         499 
 12.3          526 
 12.32         487 
 12.34         559 
 12.36         512 
 12.38         495 
 12.4          514 
 12.42         518 
 12.44         472 
 12.46         505 
 12.48         562 
 12.5          509 
 12.52         471 
 12.54         497 
 12.56         503 
 12.58         491 
 12.6          510 
 12.62         521 
 12.64         514 
 12.66         481 
 12.68         510 
 12.7          490 
 12.72         535 
 12.74         478 
 12.76         491 
 12.78         457 
 12.8          499 
 12.82         522 
 12.84         461 
 12.86         505 
 12.88         491 
 12.9          523 
 12.92         470 
 12.94         488 
 12.96         544 
 12.98         512 
 13            505 
 13.02         504 
 13.04         549 
 13.06         519 
 13.08         450 
 13.1          474 
 13.12         544 
 13.14         491 
 13.16         470 
 13.18         532 
 13.2          479 
 13.22         499 
 13.24         507 
 13.26         498 
 13.28         448 
 13.3          457 
 13.32         476 
 13.34         472 
 13.36         425 
 13.38         422 
 13.4          446 
 13.42         463 
 13.44         483 
 13.46         488 
 13.48         448 
 13.5          483 
 13.52         462 
 13.54         492 
 13.56         478 
 13.58         452 
 13.6          507 
 13.62         485 
 13.64         448 
 13.66         483 
 13.68         435 
 13.7          481 
 13.72         445 
 13.74         386 
 13.76         415 
 13.78         393 
 13.8          355 
 13.82         455 
 13.84         410 
 13.86         409 
 13.88         422 
 13.9          372 
 13.92         389 
 13.94         383 
 13.96         398 
 13.98         423 
 14            399 
 14.02         393 
 14.04         408 
 14.06         377 
 14.08         389 
 14.1          384 
 14.12         401 
 14.14         391 
 14.16         384 
 14.18         382 
 14.2          365 
 14.22         377 
 14.24         362 
 14.26         394 
 14.28         336 
 14.3          380 
 14.32         361 
 14.34         374 
 14.36         347 
 14.38         350 
 14.4          337 
 14.42         375 
 14.44         393 
 14.46         389 
 14.48         352 
 14.5          373 
 14.52         383 
 14.54         449 
 14.56         440 
 14.58         483 
 14.6          473 
 14.62         524 
 14.64         573 
 14.66         557 
 14.68         624 
 14.7          644 
 14.72         678 
 14.74         784 
 14.76         807 
 14.78         966 
 14.8          1025 
 14.82         1171 
 14.84         1300 
 14.86         1476 
 14.88         1684 
 14.9          2033 
 14.92         2335 
 14.94         2701 
 14.96         3206 
 14.98         3780 
 15            4348 
 15.02         4815 
 15.04         4971 
 15.06         4595 
 15.08         3959 
 15.1          3054 
 15.12         1951 
 15.14         1223 
 15.16         789 
 15.18         522 
 15.2          396 
 15.22         385 
 15.24         321 
 15.26         312 
 15.28         316 
 15.3          339 
 15.32         261 
 15.34         295 
 15.36         242 
 15.38         255 
 15.4          269 
 15.42         230 
 15.44         250 
 15.46         265 
 15.48         275 
 15.5          239 
 15.52         244 
 15.54         244 
 15.56         250 
 15.58         242 
 15.6          255 
 15.62         261 
 15.64         240 
 15.66         255 
 15.68         233 
 15.7          239 
 15.72         217 
 15.74         224 
 15.76         253 
 15.78         223 
 15.8          183 
 15.82         222 
 15.84         226 
 15.86         205 
 15.88         201 
 15.9          215 
 15.92         213 
 15.94         237 
 15.96         179 
 15.98         234 
 16            207 
 16.02         211 
 16.04         207 
 16.06         208 
 16.08         214 
 16.1          222 
 16.12         196 
 16.14         216 
 16.16         229 
 16.18         190 
 16.2          199 
 16.22         212 
 16.24         205 
 16.26         207 
 16.28         208 
 16.3          204 
 16.32         208 
 16.34         195 
 16.36         197 
 16.38         210 
 16.4          211 
 16.42         214 
 16.44         206 
 16.46         183 
 16.48         209 
 16.5          209 
 16.52         194 
 16.54         179 
 16.56         173 
 16.58         191 
 16.6          199 
 16.62         206 
 16.64         196 
 16.66         179 
 16.68         188 
 16.7          165 
 16.72         175 
 16.74         175 
 16.76         195 
 16.78         186 
 16.8          186 
 16.82         165 
 16.84         193 
 16.86         175 
 16.88         206 
 16.9          177 
 16.92         175 
 16.94         156 
 16.96         195 
 16.98         169 
 17            188 
 17.02         218 
 17.04         167 
 17.06         206 
 17.08         203 
 17.1          209 
 17.12         190 
 17.14         225 
 17.16         229 
 17.18         201 
 17.2          189 
 17.22         241 
 17.24         236 
 17.26         235 
 17.28         289 
 17.3          278 
 17.32         282 
 17.34         287 
 17.36         309 
 17.38         274 
 17.4          280 
 17.42         234 
 17.44         260 
 17.46         218 
 17.48         183 
 17.5          190 
 17.52         179 
 17.54         180 
 17.56         184 
 17.58         171 
 17.6          183 
 17.62         172 
 17.64         180 
 17.66         169 
 17.68         167 
 17.7          188 
 17.72         174 
 17.74         168 
 17.76         192 
 17.78         160 
 17.8          188 
 17.82         169 
 17.84         190 
 17.86         155 
 17.88         192 
 17.9          172 
 17.92         161 
 17.94         167 
 17.96         193 
 17.98         167 
 18            176 
 18.02         166 
 18.04         186 
 18.06         174 
 18.08         203 
 18.1          182 
 18.12         205 
 18.14         210 
 18.16         214 
 18.18         205 
 18.2          230 
 18.22         254 
 18.24         214 
 18.26         255 
 18.28         223 
 18.3          217 
 18.32         214 
 18.34         196 
 18.36         161 
 18.38         182 
 18.4          176 
 18.42         158 
 18.44         161 
 18.46         161 
 18.48         160 
 18.5          161 
 18.52         155 
 18.54         161 
 18.56         147 
 18.58         150 
 18.6          138 
 18.62         153 
 18.64         148 
 18.66         148 
 18.68         149 
 18.7          154 
 18.72         153 
 18.74         162 
 18.76         148 
 18.78         153 
 18.8          154 
 18.82         156 
 18.84         183 
 18.86         158 
 18.88         142 
 18.9          179 
 18.92         158 
 18.94         145 
 18.96         134 
 18.98         156 
 19            147 
 19.02         177 
 19.04         154 
 19.06         141 
 19.08         139 
 19.1          159 
 19.12         152 
 19.14         156 
 19.16         135 
 19.18         134 
 19.2          126 
 19.22         129 
 19.24         163 
 19.26         122 
 19.28         143 
 19.3          151 
 19.32         137 
 19.34         138 
 19.36         143 
 19.38         127 
 19.4          138 
 19.42         148 
 19.44         152 
 19.46         140 
 19.48         125 
 19.5          161 
 19.52         140 
 19.54         144 
 19.56         136 
 19.58         127 
 19.6          128 
 19.62         169 
 19.64         130 
 19.66         129 
 19.68         143 
 19.7          155 
 19.72         133 
 19.74         133 
 19.76         140 
 19.78         141 
 19.8          147 
 19.82         142 
 19.84         142 
 19.86         122 
 19.88         148 
 19.9          132 
 19.92         155 
 19.94         142 
 19.96         136 
 19.98         157 
 20            156 
 20.02         169 
 20.04         144 
 20.06         140 
 20.08         152 
 20.1          147 
 20.12         145 
 20.14         145 
 20.16         165 
 20.18         146 
 20.2          157 
 20.22         158 
 20.24         156 
 20.26         186 
 20.28         193 
 20.3          169 
 20.32         199 
 20.34         177 
 20.36         212 
 20.38         197 
 20.4          229 
 20.42         200 
 20.44         214 
 20.46         224 
 20.48         186 
 20.5          216 
 20.52         239 
 20.54         213 
 20.56         215 
 20.58         222 
 20.6          250 
 20.62         231 
 20.64         235 
 20.66         271 
 20.68         261 
 20.7          261 
 20.72         309 
 20.74         281 
 20.76         311 
 20.78         390 
 20.8          420 
 20.82         472 
 20.84         505 
 20.86         589 
 20.88         656 
 20.9          738 
 20.92         935 
 20.94         1084 
 20.96         1227 
 20.98         1468 
 21            1746 
 21.02         2035 
 21.04         2483 
 21.06         3047 
 21.08         3605 
 21.1          4438 
 21.12         5535 
 21.14         6635 
 21.16         7947 
 21.18         10087 
 21.2          12174 
 21.22         14151 
 21.24         16092 
 21.26         17402 
 21.28         17796 
 21.3          17062 
 21.32         15617 
 21.34         13958 
 21.36         12586 
 21.38         11892 
 21.4          11845 
 21.42         11981 
 21.44         11779 
 21.46         10927 
 21.48         9339 
 21.5          7543 
 21.52         5489 
 21.54         3817 
 21.56         2552 
 21.58         1643 
 21.6          1186 
 21.62         910 
 21.64         831 
 21.66         672 
 21.68         599 
 21.7          562 
 21.72         563 
 21.74         512 
 21.76         471 
 21.78         453 
 21.8          345 
 21.82         309 
 21.84         264 
 21.86         282 
 21.88         254 
 21.9          192 
 21.92         191 
 21.94         166 
 21.96         190 
 21.98         165 
 22            178 
 22.02         150 
 22.04         189 
 22.06         169 
 22.08         176 
 22.1          175 
 22.12         171 
 22.14         142 
 22.16         172 
 22.18         167 
 22.2          164 
 22.22         150 
 22.24         148 
 22.26         129 
 22.28         160 
 22.3          146 
 22.32         149 
 22.34         140 
 22.36         140 
 22.38         133 
 22.4          139 
 22.42         112 
 22.44         150 
 22.46         133 
 22.48         134 
 22.5          137 
 22.52         151 
 22.54         124 
 22.56         137 
 22.58         136 
 22.6          143 
 22.62         143 
 22.64         145 
 22.66         129 
 22.68         138 
 22.7          115 
 22.72         163 
 22.74         128 
 22.76         139 
 22.78         138 
 22.8          114 
 22.82         122 
 22.84         142 
 22.86         122 
 22.88         145 
 22.9          134 
 22.92         135 
 22.94         120 
 22.96         144 
 22.98         130 
 23            127 
 23.02         136 
 23.04         125 
 23.06         140 
 23.08         146 
 23.1          112 
 23.12         140 
 23.14         147 
 23.16         134 
 23.18         160 
 23.2          138 
 23.22         135 
 23.24         150 
 23.26         111 
 23.28         147 
 23.3          160 
 23.32         143 
 23.34         160 
 23.36         171 
 23.38         169 
 23.4          169 
 23.42         167 
 23.44         163 
 23.46         163 
 23.48         143 
 23.5          151 
 23.52         150 
 23.54         147 
 23.56         179 
 23.58         171 
 23.6          169 
 23.62         172 
 23.64         180 
 23.66         161 
 23.68         163 
 23.7          180 
 23.72         135 
 23.74         129 
 23.76         151 
 23.78         120 
 23.8          113 
 23.82         108 
 23.84         126 
 23.86         147 
 23.88         122 
 23.9          118 
 23.92         145 
 23.94         132 
 23.96         155 
 23.98         151 
 24            155 
 24.02         161 
 24.04         161 
 24.06         174 
 24.08         168 
 24.1          188 
 24.12         203 
 24.14         183 
 24.16         184 
 24.18         168 
 24.2          167 
 24.22         169 
 24.24         136 
 24.26         124 
 24.28         136 
 24.3          146 
 24.32         138 
 24.34         136 
 24.36         156 
 24.38         152 
 24.4          163 
 24.42         150 
 24.44         164 
 24.46         185 
 24.48         146 
 24.5          157 
 24.52         190 
 24.54         203 
 24.56         194 
 24.58         239 
 24.6          247 
 24.62         272 
 24.64         336 
 24.66         360 
 24.68         401 
 24.7          471 
 24.72         494 
 24.74         578 
 24.76         679 
 24.78         837 
 24.8          935 
 24.82         1162 
 24.84         1330 
 24.86         1499 
 24.88         2054 
 24.9          2510 
 24.92         2850 
 24.94         3711 
 24.96         4663 
 24.98         5940 
 25            7484 
 25.02         9514 
 25.04         11888 
 25.06         15135 
 25.08         18182 
 25.1          20451 
 25.12         21542 
 25.14         20618 
 25.16         18220 
 25.18         14609 
 25.2          10600 
 25.22         7539 
 25.24         4741 
 25.26         2987 
 25.28         1882 
 25.3          1263 
 25.32         944 
 25.34         781 
 25.36         607 
 25.38         482 
 25.4          472 
 25.42         391 
 25.44         371 
 25.46         314 
 25.48         315 
 25.5          315 
 25.52         280 
 25.54         264 
 25.56         244 
 25.58         255 
 25.6          248 
 25.62         249 
 25.64         256 
 25.66         250 
 25.68         288 
 25.7          318 
 25.72         345 
 25.74         375 
 25.76         394 
 25.78         439 
 25.8          438 
 25.82         549 
 25.84         605 
 25.86         596 
 25.88         634 
 25.9          748 
 25.92         771 
 25.94         814 
 25.96         779 
 25.98         824 
 26            787 
 26.02         734 
 26.04         729 
 26.06         671 
 26.08         646 
 26.1          615 
 26.12         508 
 26.14         440 
 26.16         353 
 26.18         364 
 26.2          369 
 26.22         376 
 26.24         386 
 26.26         497 
 26.28         538 
 26.3          560 
 26.32         596 
 26.34         642 
 26.36         605 
 26.38         604 
 26.4          540 
 26.42         432 
 26.44         372 
 26.46         342 
 26.48         252 
 26.5          265 
 26.52         169 
 26.54         185 
 26.56         142 
 26.58         135 
 26.6          152 
 26.62         158 
 26.64         136 
 26.66         114 
 26.68         140 
 26.7          129 
 26.72         117 
 26.74         142 
 26.76         111 
 26.78         134 
 26.8          130 
 26.82         119 
 26.84         135 
 26.86         130 
 26.88         118 
 26.9          122 
 26.92         122 
 26.94         134 
 26.96         134 
 26.98         163 
 27            162 
 27.02         158 
 27.04         141 
 27.06         166 
 27.08         150 
 27.1          125 
 27.12         119 
 27.14         124 
 27.16         116 
 27.18         121 
 27.2          111 
 27.22         114 
 27.24         121 
 27.26         110 
 27.28         128 
 27.3          127 
 27.32         117 
 27.34         103 
 27.36         132 
 27.38         127 
 27.4          124 
 27.42         119 
 27.44         115 
 27.46         135 
 27.48         113 
 27.5          124 
 27.52         108 
 27.54         101 
 27.56         116 
 27.58         119 
 27.6          120 
 27.62         115 
 27.64         123 
 27.66         104 
 27.68         121 
 27.7          102 
 27.72         100 
 27.74         116 
 27.76         117 
 27.78         103 
 27.8          89 
 27.82         103 
 27.84         120 
 27.86         105 
 27.88         99 
 27.9          104 
 27.92         123 
 27.94         115 
 27.96         85 
 27.98         117 
 28            106 
 28.02         118 
 28.04         121 
 28.06         136 
 28.08         145 
 28.1          131 
 28.12         135 
 28.14         153 
 28.16         128 
 28.18         134 
 28.2          122 
 28.22         141 
 28.24         132 
 28.26         110 
 28.28         117 
 28.3          121 
 28.32         137 
 28.34         113 
 28.36         113 
 28.38         100 
 28.4          100 
 28.42         104 
 28.44         115 
 28.46         107 
 28.48         118 
 28.5          138 
 28.52         114 
 28.54         127 
 28.56         136 
 28.58         122 
 28.6          110 
 28.62         133 
 28.64         120 
 28.66         117 
 28.68         119 
 28.7          118 
 28.72         103 
 28.74         123 
 28.76         124 
 28.78         109 
 28.8          127 
 28.82         104 
 28.84         115 
 28.86         98 
 28.88         139 
 28.9          113 
 28.92         108 
 28.94         105 
 28.96         104 
 28.98         105 
 29            82 
 29.02         109 
 29.04         125 
 29.06         122 
 29.08         116 
 29.1          132 
 29.12         128 
 29.14         131 
 29.16         111 
 29.18         132 
 29.2          114 
 29.22         113 
 29.24         119 
 29.26         125 
 29.28         121 
 29.3          135 
 29.32         114 
 29.34         116 
 29.36         144 
 29.38         112 
 29.4          103 
 29.42         113 
 29.44         144 
 29.46         114 
 29.48         110 
 29.5          105 
 29.52         124 
 29.54         107 
 29.56         116 
 29.58         118 
 29.6          105 
 29.62         111 
 29.64         128 
 29.66         123 
 29.68         134 
 29.7          122 
 29.72         135 
 29.74         110 
 29.76         123 
 29.78         131 
 29.8          139 
 29.82         150 
 29.84         180 
 29.86         163 
 29.88         163 
 29.9          188 
 29.92         238 
 29.94         253 
 29.96         247 
 29.98         261 
 30            295 
 30.02         384 
 30.04         347 
 30.06         385 
 30.08         444 
 30.1          530 
 30.12         642 
 30.14         696 
 30.16         930 
 30.18         1143 
 30.2          1411 
 30.22         1823 
 30.24         2340 
 30.26         3102 
 30.28         3985 
 30.3          5141 
 30.32         6714 
 30.34         8485 
 30.36         9928 
 30.38         11312 
 30.4          11703 
 30.42         11378 
 30.44         9922 
 30.46         8144 
 30.48         6497 
 30.5          4679 
 30.52         3341 
 30.54         2212 
 30.56         1373 
 30.58         981 
 30.6          738 
 30.62         608 
 30.64         490 
 30.66         441 
 30.68         390 
 30.7          292 
 30.72         309 
 30.74         243 
 30.76         247 
 30.78         200 
 30.8          208 
 30.82         192 
 30.84         213 
 30.86         189 
 30.88         147 
 30.9          152 
 30.92         168 
 30.94         160 
 30.96         145 
 30.98         162 
 31            151 
 31.02         149 
 31.04         128 
 31.06         147 
 31.08         149 
 31.1          125 
 31.12         117 
 31.14         143 
 31.16         132 
 31.18         150 
 31.2          139 
 31.22         148 
 31.24         117 
 31.26         121 
 31.28         143 
 31.3          140 
 31.32         134 
 31.34         130 
 31.36         126 
 31.38         174 
 31.4          165 
 31.42         145 
 31.44         162 
 31.46         150 
 31.48         142 
 31.5          131 
 31.52         117 
 31.54         143 
 31.56         132 
 31.58         122 
 31.6          118 
 31.62         126 
 31.64         152 
 31.66         140 
 31.68         133 
 31.7          140 
 31.72         130 
 31.74         123 
 31.76         159 
 31.78         132 
 31.8          140 
 31.82         126 
 31.84         130 
 31.86         107 
 31.88         129 
 31.9          149 
 31.92         93 
 31.94         93 
 31.96         103 
 31.98         87 
 32            115 
 32.02         100 
 32.04         94 
 32.06         121 
 32.08         102 
 32.1          100 
 32.12         107 
 32.14         89 
 32.16         88 
 32.18         87 
 32.2          99 
 32.22         98 
 32.24         102 
 32.26         91 
 32.28         97 
 32.3          100 
 32.32         100 
 32.34         109 
 32.36         104 
 32.38         87 
 32.4          98 
 32.42         121 
 32.44         105 
 32.46         106 
 32.48         108 
 32.5          99 
 32.52         110 
 32.54         104 
 32.56         115 
 32.58         116 
 32.6          118 
 32.62         112 
 32.64         121 
 32.66         119 
 32.68         106 
 32.7          99 
 32.72         102 
 32.74         136 
 32.76         129 
 32.78         114 
 32.8          125 
 32.82         110 
 32.84         141 
 32.86         162 
 32.88         136 
 32.9          142 
 32.92         176 
 32.94         166 
 32.96         170 
 32.98         193 
 33            206 
 33.02         212 
 33.04         251 
 33.06         260 
 33.08         354 
 33.1          399 
 33.12         503 
 33.14         560 
 33.16         702 
 33.18         918 
 33.2          1208 
 33.22         1596 
 33.24         1953 
 33.26         2416 
 33.28         2955 
 33.3          3441 
 33.32         3598 
 33.34         3631 
 33.36         3495 
 33.38         3079 
 33.4          2712 
 33.42         2176 
 33.44         1698 
 33.46         1324 
 33.48         1007 
 33.5          783 
 33.52         598 
 33.54         476 
 33.56         467 
 33.58         386 
 33.6          391 
 33.62         445 
 33.64         366 
 33.66         433 
 33.68         453 
 33.7          557 
 33.72         623 
 33.74         683 
 33.76         844 
 33.78         1081 
 33.8          1360 
 33.82         1667 
 33.84         2284 
 33.86         2832 
 33.88         3640 
 33.9          4453 
 33.92         5359 
 33.94         6274 
 33.96         6924 
 33.98         7190 
 34            7274 
 34.02         6584 
 34.04         5848 
 34.06         4705 
 34.08         3750 
 34.1          2935 
 34.12         2014 
 34.14         1511 
 34.16         1071 
 34.18         690 
 34.2          503 
 34.22         409 
 34.24         327 
 34.26         308 
 34.28         252 
 34.3          215 
 34.32         210 
 34.34         154 
 34.36         196 
 34.38         173 
 34.4          171 
 34.42         153 
 34.44         145 
 34.46         162 
 34.48         122 
 34.5          142 
 34.52         131 
 34.54         126 
 34.56         145 
 34.58         114 
 34.6          101 
 34.62         120 
 34.64         111 
 34.66         108 
 34.68         120 
 34.7          96 
 34.72         92 
 34.74         104 
 34.76         101 
 34.78         100 
 34.8          99 
 34.82         92 
 34.84         91 
 34.86         104 
 34.88         97 
 34.9          117 
 34.92         103 
 34.94         96 
 34.96         102 
 34.98         106 
 35            101 
 35.02         84 
 35.04         109 
 35.06         106 
 35.08         120 
 35.1          108 
 35.12         113 
 35.14         92 
 35.16         102 
 35.18         91 
 35.2          97 
 35.22         96 
 35.24         110 
 35.26         92 
 35.28         97 
 35.3          86 
 35.32         105 
 35.34         93 
 35.36         95 
 35.38         92 
 35.4          88 
 35.42         108 
 35.44         94 
 35.46         87 
 35.48         97 
 35.5          94 
 35.52         86 
 35.54         109 
 35.56         96 
 35.58         103 
 35.6          101 
 35.62         123 
 35.64         134 
 35.66         123 
 35.68         148 
 35.7          117 
 35.72         144 
 35.74         138 
 35.76         125 
 35.78         155 
 35.8          151 
 35.82         124 
 35.84         129 
 35.86         130 
 35.88         148 
 35.9          126 
 35.92         136 
 35.94         137 
 35.96         145 
 35.98         125 
 36            133 
 36.02         139 
 36.04         143 
 36.06         125 
 36.08         108 
 36.1          110 
 36.12         115 
 36.14         104 
 36.16         118 
 36.18         121 
 36.2          114 
 36.22         102 
 36.24         122 
 36.26         113 
 36.28         116 
 36.3          110 
 36.32         108 
 36.34         107 
 36.36         99 
 36.38         94 
 36.4          101 
 36.42         102 
 36.44         110 
 36.46         82 
 36.48         89 
 36.5          71 
 36.52         99 
 36.54         115 
 36.56         104 
 36.58         81 
 36.6          90 
 36.62         102 
 36.64         96 
 36.66         107 
 36.68         109 
 36.7          103 
 36.72         103 
 36.74         89 
 36.76         100 
 36.78         102 
 36.8          108 
 36.82         105 
 36.84         106 
 36.86         121 
 36.88         147 
 36.9          126 
 36.92         127 
 36.94         136 
 36.96         151 
 36.98         175 
 37            169 
 37.02         201 
 37.04         193 
 37.06         207 
 37.08         182 
 37.1          228 
 37.12         270 
 37.14         267 
 37.16         292 
 37.18         326 
 37.2          357 
 37.22         390 
 37.24         413 
 37.26         424 
 37.28         461 
 37.3          571 
 37.32         723 
 37.34         830 
 37.36         1019 
 37.38         1339 
 37.4          1702 
 37.42         2182 
 37.44         2887 
 37.46         3587 
 37.48         4421 
 37.5          5149 
 37.52         5792 
 37.54         6220 
 37.56         6466 
 37.58         6477 
 37.6          6317 
 37.62         5956 
 37.64         5286 
 37.66         4660 
 37.68         3936 
 37.7          3261 
 37.72         2648 
 37.74         2124 
 37.76         1649 
 37.78         1209 
 37.8          888 
 37.82         680 
 37.84         574 
 37.86         452 
 37.88         403 
 37.9          347 
 37.92         292 
 37.94         308 
 37.96         303 
 37.98         239 
 38            230 
 38.02         257 
 38.04         232 
 38.06         241 
 38.08         219 
 38.1          196 
 38.12         195 
 38.14         180 
 38.16         166 
 38.18         172 
 38.2          153 
 38.22         145 
 38.24         127 
 38.26         130 
 38.28         127 
 38.3          123 
 38.32         141 
 38.34         118 
 38.36         101 
 38.38         99 
 38.4          102 
 38.42         109 
 38.44         122 
 38.46         100 
 38.48         108 
 38.5          107 
 38.52         99 
 38.54         109 
 38.56         96 
 38.58         91 
 38.6          103 
 38.62         90 
 38.64         94 
 38.66         100 
 38.68         87 
 38.7          75 
 38.72         96 
 38.74         119 
 38.76         96 
 38.78         102 
 38.8          111 
 38.82         111 
 38.84         93 
 38.86         89 
 38.88         98 
 38.9          100 
 38.92         139 
 38.94         122 
 38.96         127 
 38.98         134 
 39            126 
 39.02         119 
 39.04         135 
 39.06         111 
 39.08         131 
 39.1          108 
 39.12         135 
 39.14         118 
 39.16         118 
 39.18         120 
 39.2          126 
 39.22         107 
 39.24         137 
 39.26         157 
 39.28         141 
 39.3          153 
 39.32         143 
 39.34         150 
 39.36         132 
 39.38         149 
 39.4          133 
 39.42         144 
 39.44         138 
 39.46         140 
 39.48         122 
 39.5          112 
 39.52         131 
 39.54         132 
 39.56         136 
 39.58         121 
 39.6          138 
 39.62         109 
 39.64         95 
 39.66         130 
 39.68         143 
 39.7          134 
 39.72         135 
 39.74         141 
 39.76         144 
 39.78         150 
 39.8          163 
 39.82         167 
 39.84         185 
 39.86         198 
 39.88         216 
 39.9          193 
 39.92         237 
 39.94         231 
 39.96         227 
 39.98         202 
 40            189 
 40.02         196 
 40.04         202 
 40.06         173 
 40.08         170 
 40.1          139 
 40.12         129 
 40.14         114 
 40.16         137 
 40.18         108 
 40.2          127 
 40.22         130 
 40.24         117 
 40.26         95 
 40.28         99 
 40.3          95 
 40.32         94 
 40.34         105 
 40.36         88 
 40.38         86 
 40.4          81 
 40.42         92 
 40.44         70 
 40.46         90 
 40.48         91 
 40.5          76 
 40.52         82 
 40.54         67 
 40.56         82 
 40.58         81 
 40.6          76 
 40.62         88 
 40.64         79 
 40.66         95 
 40.68         75 
 40.7          71 
 40.72         102 
 40.74         86 
 40.76         103 
 40.78         89 
 40.8          86 
 40.82         115 
 40.84         75 
 40.86         91 
 40.88         99 
 40.9          101 
 40.92         73 
 40.94         80 
 40.96         96 
 40.98         84 
 41            93 
 41.02         97 
 41.04         91 
 41.06         105 
 41.08         101 
 41.1          80 
 41.12         96 
 41.14         77 
 41.16         100 
 41.18         99 
 41.2          68 
 41.22         80 
 41.24         79 
 41.26         105 
 41.28         97 
 41.3          99 
 41.32         82 
 41.34         94 
 41.36         101 
 41.38         101 
 41.4          118 
 41.42         97 
 41.44         109 
 41.46         96 
 41.48         120 
 41.5          121 
 41.52         120 
 41.54         126 
 41.56         133 
 41.58         111 
 41.6          113 
 41.62         121 
 41.64         138 
 41.66         105 
 41.68         145 
 41.7          124 
 41.72         126 
 41.74         133 
 41.76         145 
 41.78         148 
 41.8          138 
 41.82         138 
 41.84         103 
 41.86         123 
 41.88         108 
 41.9          110 
 41.92         102 
 41.94         77 
 41.96         116 
 41.98         114 
 42            91 
 42.02         97 
 42.04         86 
 42.06         102 
 42.08         95 
 42.1          92 
 42.12         101 
 42.14         105 
 42.16         103 
 42.18         118 
 42.2          98 
 42.22         105 
 42.24         92 
 42.26         98 
 42.28         116 
 42.3          95 
 42.32         98 
 42.34         88 
 42.36         99 
 42.38         91 
 42.4          82 
 42.42         86 
 42.44         101 
 42.46         87 
 42.48         88 
 42.5          92 
 42.52         81 
 42.54         82 
 42.56         82 
 42.58         81 
 42.6          74 
 42.62         77 
 42.64         99 
 42.66         99 
 42.68         86 
 42.7          102 
 42.72         90 
 42.74         96 
 42.76         85 
 42.78         97 
 42.8          89 
 42.82         104 
 42.84         84 
 42.86         101 
 42.88         83 
 42.9          90 
 42.92         75 
 42.94         98 
 42.96         91 
 42.98         113 
 43            105 
 43.02         111 
 43.04         99 
 43.06         125 
 43.08         126 
 43.1          130 
 43.12         151 
 43.14         173 
 43.16         179 
 43.18         205 
 43.2          266 
 43.22         301 
 43.24         396 
 43.26         448 
 43.28         522 
 43.3          600 
 43.32         656 
 43.34         756 
 43.36         787 
 43.38         800 
 43.4          797 
 43.42         676 
 43.44         592 
 43.46         598 
 43.48         480 
 43.5          434 
 43.52         364 
 43.54         311 
 43.56         234 
 43.58         177 
 43.6          185 
 43.62         163 
 43.64         166 
 43.66         139 
 43.68         160 
 43.7          138 
 43.72         122 
 43.74         129 
 43.76         130 
 43.78         100 
 43.8          109 
 43.82         105 
 43.84         96 
 43.86         115 
 43.88         107 
 43.9          105 
 43.92         99 
 43.94         93 
 43.96         102 
 43.98         86 
 44            100 
 44.02         91 
 44.04         85 
 44.06         114 
 44.08         91 
 44.1          93 
 44.12         89 
 44.14         90 
 44.16         95 
 44.18         90 
 44.2          98 
 44.22         94 
 44.24         86 
 44.26         79 
 44.28         85 
 44.3          88 
 44.32         89 
 44.34         90 
 44.36         103 
 44.38         106 
 44.4          97 
 44.42         87 
 44.44         108 
 44.46         95 
 44.48         89 
 44.5          90 
 44.52         91 
 44.54         83 
 44.56         110 
 44.58         78 
 44.6          113 
 44.62         91 
 44.64         94 
 44.66         94 
 44.68         91 
 44.7          102 
 44.72         79 
 44.74         104 
 44.76         108 
 44.78         103 
 44.8          74 
 44.82         99 
 44.84         102 
 44.86         92 
 44.88         100 
 44.9          98 
 44.92         133 
 44.94         103 
 44.96         119 
 44.98         123 
 45            114 
 45.02         117 
 45.04         139 
 45.06         118 
 45.08         139 
 45.1          186 
 45.12         186 
 45.14         223 
 45.16         250 
 45.18         262 
 45.2          305 
 45.22         353 
 45.24         421 
 45.26         509 
 45.28         613 
 45.3          648 
 45.32         745 
 45.34         781 
 45.36         937 
 45.38         1005 
 45.4          1042 
 45.42         1146 
 45.44         1090 
 45.46         1041 
 45.48         1046 
 45.5          1043 
 45.52         941 
 45.54         909 
 45.56         833 
 45.58         808 
 45.6          707 
 45.62         621 
 45.64         561 
 45.66         621 
 45.68         641 
 45.7          683 
 45.72         757 
 45.74         849 
 45.76         832 
 45.78         819 
 45.8          794 
 45.82         730 
 45.84         710 
 45.86         661 
 45.88         647 
 45.9          649 
 45.92         575 
 45.94         537 
 45.96         496 
 45.98         491 
 46            476 
 46.02         444 
 46.04         404 
 46.06         418 
 46.08         374 
 46.1          350 
 46.12         335 
 46.14         320 
 46.16         292 
 46.18         287 
 46.2          251 
 46.22         270 
 46.24         275 
 46.26         284 
 46.28         313 
 46.3          356 
 46.32         369 
 46.34         390 
 46.36         405 
 46.38         441 
 46.4          438 
 46.42         481 
 46.44         542 
 46.46         573 
 46.48         614 
 46.5          590 
 46.52         502 
 46.54         514 
 46.56         475 
 46.58         442 
 46.6          391 
 46.62         348 
 46.64         317 
 46.66         287 
 46.68         216 
 46.7          170 
 46.72         162 
 46.74         163 
 46.76         135 
 46.78         121 
 46.8          95 
 46.82         113 
 46.84         127 
 46.86         105 
 46.88         94 
 46.9          101 
 46.92         93 
 46.94         102 
 46.96         97 
 46.98         95 
 47            88 
 47.02         91 
 47.04         89 
 47.06         86 
 47.08         95 
 47.1          80 
 47.12         91 
 47.14         81 
 47.16         73 
 47.18         79 
 47.2          72 
 47.22         92 
 47.24         82 
 47.26         88 
 47.28         103 
 47.3          88 
 47.32         85 
 47.34         84 
 47.36         84 
 47.38         75 
 47.4          87 
 47.42         88 
 47.44         68 
 47.46         83 
 47.48         87 
 47.5          72 
 47.52         75 
 47.54         80 
 47.56         77 
 47.58         87 
 47.6          82 
 47.62         88 
 47.64         90 
 47.66         81 
 47.68         78 
 47.7          94 
 47.72         101 
 47.74         90 
 47.76         85 
 47.78         93 
 47.8          105 
 47.82         80 
 47.84         103 
 47.86         91 
 47.88         89 
 47.9          91 
 47.92         107 
 47.94         94 
 47.96         102 
 47.98         105 
 48            98 
 48.02         103 
 48.04         87 
 48.06         103 
 48.08         101 
 48.1          101 
 48.12         101 
 48.14         111 
 48.16         114 
 48.18         95 
 48.2          90 
 48.22         114 
 48.24         114 
 48.26         119 
 48.28         114 
 48.3          140 
 48.32         123 
 48.34         141 
 48.36         133 
 48.38         151 
 48.4          160 
 48.42         178 
 48.44         164 
 48.46         177 
 48.48         167 
 48.5          222 
 48.52         225 
 48.54         263 
 48.56         276 
 48.58         304 
 48.6          344 
 48.62         363 
 48.64         437 
 48.66         510 
 48.68         624 
 48.7          819 
 48.72         960 
 48.74         1319 
 48.76         1675 
 48.78         2099 
 48.8          2554 
 48.82         3070 
 48.84         3380 
 48.86         3703 
 48.88         3955 
 48.9          3686 
 48.92         3495 
 48.94         3195 
 48.96         3052 
 48.98         2757 
 49            2653 
 49.02         2742 
 49.04         2610 
 49.06         2677 
 49.08         2614 
 49.1          2420 
 49.12         2355 
 49.14         2259 
 49.16         1850 
 49.18         1742 
 49.2          1552 
 49.22         1473 
 49.24         1344 
 49.26         1122 
 49.28         938 
 49.3          709 
 49.32         548 
 49.34         480 
 49.36         371 
 49.38         349 
 49.4          273 
 49.42         238 
 49.44         214 
 49.46         216 
 49.48         175 
 49.5          194 
 49.52         171 
 49.54         162 
 49.56         158 
 49.58         163 
 49.6          158 
 49.62         167 
 49.64         154 
 49.66         139 
 49.68         152 
 49.7          146 
 49.72         149 
 49.74         132 
 49.76         141 
 49.78         117 
 49.8          114 
 49.82         118 
 49.84         103 
 49.86         118 
 49.88         112 
 49.9          108 
 49.92         105 
 49.94         96 
 49.96         98 
 49.98         109 
 50            91 
 50.02         97 
 50.04         110 
 50.06         93 
 50.08         100 
 50.1          95 
 50.12         87 
 50.14         94 
 50.16         83 
 50.18         91 
 50.2          88 
 50.22         98 
 50.24         93 
 50.26         86 
 50.28         96 
 50.3          101 
 50.32         89 
 50.34         92 
 50.36         91 
 50.38         91 
 50.4          93 
 50.42         79 
 50.44         88 
 50.46         85 
 50.48         90 
 50.5          101 
 50.52         87 
 50.54         95 
 50.56         105 
 50.58         90 
 50.6          112 
 50.62         99 
 50.64         98 
 50.66         100 
 50.68         119 
 50.7          100 
 50.72         123 
 50.74         126 
 50.76         124 
 50.78         132 
 50.8          130 
 50.82         150 
 50.84         169 
 50.86         229 
 50.88         246 
 50.9          282 
 50.92         365 
 50.94         436 
 50.96         516 
 50.98         523 
 51            642 
 51.02         651 
 51.04         614 
 51.06         583 
 51.08         565 
 51.1          594 
 51.12         603 
 51.14         648 
 51.16         631 
 51.18         595 
 51.2          643 
 51.22         663 
 51.24         708 
 51.26         729 
 51.28         741 
 51.3          762 
 51.32         762 
 51.34         790 
 51.36         761 
 51.38         768 
 51.4          704 
 51.42         794 
 51.44         860 
 51.46         982 
 51.48         1212 
 51.5          1364 
 51.52         1843 
 51.54         2250 
 51.56         2579 
 51.58         2732 
 51.6          2933 
 51.62         2912 
 51.64         2562 
 51.66         2573 
 51.68         2631 
 51.7          2583 
 51.72         2519 
 51.74         2360 
 51.76         2030 
 51.78         1799 
 51.8          1470 
 51.82         1225 
 51.84         1174 
 51.86         1048 
 51.88         917 
 51.9          773 
 51.92         625 
 51.94         530 
 51.96         438 
 51.98         361 
 52            276 
 52.02         242 
 52.04         241 
 52.06         213 
 52.08         184 
 52.1          190 
 52.12         159 
 52.14         131 
 52.16         137 
 52.18         108 
 52.2          120 
 52.22         97 
 52.24         111 
 52.26         109 
 52.28         106 
 52.3          78 
 52.32         106 
 52.34         113 
 52.36         73 
 52.38         105 
 52.4          101 
 52.42         111 
 52.44         88 
 52.46         80 
 52.48         92 
 52.5          104 
 52.52         97 
 52.54         99 
 52.56         82 
 52.58         85 
 52.6          102 
 52.62         78 
 52.64         110 
 52.66         85 
 52.68         95 
 52.7          105 
 52.72         96 
 52.74         97 
 52.76         94 
 52.78         93 
 52.8          86 
 52.82         90 
 52.84         98 
 52.86         101 
 52.88         97 
 52.9          93 
 52.92         86 
 52.94         110 
 52.96         103 
 52.98         92 
 53            115 
 53.02         88 
 53.04         90 
 53.06         95 
 53.08         108 
 53.1          118 
 53.12         101 
 53.14         114 
 53.16         105 
 53.18         101 
 53.2          128 
 53.22         115 
 53.24         146 
 53.26         144 
 53.28         154 
 53.3          147 
 53.32         168 
 53.34         161 
 53.36         156 
 53.38         196 
 53.4          199 
 53.42         189 
 53.44         228 
 53.46         242 
 53.48         248 
 53.5          282 
 53.52         267 
 53.54         268 
 53.56         310 
 53.58         290 
 53.6          321 
 53.62         320 
 53.64         347 
 53.66         312 
 53.68         276 
 53.7          284 
 53.72         279 
 53.74         241 
 53.76         203 
 53.78         217 
 53.8          196 
 53.82         138 
 53.84         159 
 53.86         125 
 53.88         131 
 53.9          129 
 53.92         116 
 53.94         110 
 53.96         121 
 53.98         94 
 54            90 
 54.02         87 
 54.04         83 
 54.06         112 
 54.08         106 
 54.1          117 
 54.12         112 
 54.14         114 
 54.16         109 
 54.18         125 
 54.2          122 
 54.22         115 
 54.24         118 
 54.26         111 
 54.28         116 
 54.3          121 
 54.32         106 
 54.34         117 
 54.36         107 
 54.38         113 
 54.4          85 
 54.42         93 
 54.44         94 
 54.46         84 
 54.48         82 
 54.5          92 
 54.52         115 
 54.54         77 
 54.56         80 
 54.58         94 
 54.6          85 
 54.62         86 
 54.64         112 
 54.66         78 
 54.68         89 
 54.7          87 
 54.72         94 
 54.74         98 
 54.76         92 
 54.78         73 
 54.8          97 
 54.82         87 
 54.84         87 
 54.86         84 
 54.88         75 
 54.9          71 
 54.92         67 
 54.94         98 
 54.96         90 
 54.98         84 
 55            74 
 55.02         83 
 55.04         94 
 55.06         88 
 55.08         88 
 55.1          83 
 55.12         84 
 55.14         77 
 55.16         82 
 55.18         77 
 55.2          86 
 55.22         93 
 55.24         81 
 55.26         82 
 55.28         86 
 55.3          98 
 55.32         92 
 55.34         86 
 55.36         92 
 55.38         98 
 55.4          102 
 55.42         99 
 55.44         100 
 55.46         97 
 55.48         103 
 55.5          128 
 55.52         97 
 55.54         127 
 55.56         134 
 55.58         146 
 55.6          150 
 55.62         167 
 55.64         181 
 55.66         203 
 55.68         222 
 55.7          269 
 55.72         332 
 55.74         444 
 55.76         580 
 55.78         708 
 55.8          853 
 55.82         952 
 55.84         1054 
 55.86         1042 
 55.88         968 
 55.9          940 
 55.92         848 
 55.94         946 
 55.96         912 
 55.98         968 
 56            985 
 56.02         953 
 56.04         1057 
 56.06         1096 
 56.08         1193 
 56.1          1309 
 56.12         1496 
 56.14         1527 
 56.16         1800 
 56.18         1927 
 56.2          2039 
 56.22         2009 
 56.24         2090 
 56.26         1911 
 56.28         1760 
 56.3          1573 
 56.32         1448 
 56.34         1320 
 56.36         1257 
 56.38         1069 
 56.4          924 
 56.42         798 
 56.44         677 
 56.46         508 
 56.48         406 
 56.5          324 
 56.52         277 
 56.54         229 
 56.56         208 
 56.58         167 
 56.6          159 
 56.62         158 
 56.64         174 
 56.66         151 
 56.68         128 
 56.7          143 
 56.72         129 
 56.74         110 
 56.76         111 
 56.78         123 
 56.8          115 
 56.82         125 
 56.84         108 
 56.86         88 
 56.88         114 
 56.9          90 
 56.92         107 
 56.94         97 
 56.96         99 
 56.98         88 
 57            110 
 57.02         108 
 57.04         77 
 57.06         79 
 57.08         85 
 57.1          94 
 57.12         93 
 57.14         81 
 57.16         93 
 57.18         69 
 57.2          85 
 57.22         99 
 57.24         96 
 57.26         60 
 57.28         77 
 57.3          84 
 57.32         84 
 57.34         79 
 57.36         77 
 57.38         93 
 57.4          82 
 57.42         87 
 57.44         70 
 57.46         109 
 57.48         94 
 57.5          82 
 57.52         60 
 57.54         71 
 57.56         78 
 57.58         92 
 57.6          92 
 57.62         102 
 57.64         96 
 57.66         85 
 57.68         86 
 57.7          72 
 57.72         93 
 57.74         87 
 57.76         86 
 57.78         103 
 57.8          91 
 57.82         85 
 57.84         98 
 57.86         95 
 57.88         115 
 57.9          97 
 57.92         113 
 57.94         119 
 57.96         115 
 57.98         130 
 58            115 
 58.02         136 
 58.04         147 
 58.06         146 
 58.08         173 
 58.1          159 
 58.12         188 
 58.14         200 
 58.16         211 
 58.18         240 
 58.2          253 
 58.22         298 
 58.24         307 
 58.26         348 
 58.28         394 
 58.3          405 
 58.32         459 
 58.34         509 
 58.36         525 
 58.38         515 
 58.4          564 
 58.42         573 
 58.44         592 
 58.46         639 
 58.48         612 
 58.5          606 
 58.52         622 
 58.54         609 
 58.56         653 
 58.58         741 
 58.6          872 
 58.62         1033 
 58.64         1321 
 58.66         1578 
 58.68         1721 
 58.7          1978 
 58.72         2096 
 58.74         2147 
 58.76         2093 
 58.78         1925 
 58.8          2004 
 58.82         2242 
 58.84         2547 
 58.86         2890 
 58.88         3313 
 58.9          3652 
 58.92         3910 
 58.94         4132 
 58.96         4180 
 58.98         4074 
 59            3744 
 59.02         3768 
 59.04         3629 
 59.06         3428 
 59.08         3226 
 59.1          2953 
 59.12         2804 
 59.14         2455 
 59.16         2276 
 59.18         1911 
 59.2          1633 
 59.22         1350 
 59.24         1142 
 59.26         958 
 59.28         806 
 59.3          639 
 59.32         519 
 59.34         504 
 59.36         427 
 59.38         384 
 59.4          347 
 59.42         309 
 59.44         261 
 59.46         244 
 59.48         215 
 59.5          220 
 59.52         191 
 59.54         172 
 59.56         159 
 59.58         174 
 59.6          165 
 59.62         140 
 59.64         145 
 59.66         118 
 59.68         137 
 59.7          153 
 59.72         132 
 59.74         128 
 59.76         121 
 59.78         123 
 59.8          105 
 59.82         129 
 59.84         109 
 59.86         122 
 59.88         110 
 59.9          113 
 59.92         120 
 59.94         95 
 59.96         110 
 59.98         114 
 60            122 
 60.02         104 
 60.04         98 
 60.06         92 
 60.08         130 
 60.1          117 
 60.12         105 
 60.14         117 
 60.16         129 
 60.18         134 
 60.2          124 
 60.22         139 
 60.24         151 
 60.26         188 
 60.28         190 
 60.3          239 
 60.32         247 
 60.34         288 
 60.36         308 
 60.38         301 
 60.4          323 
 60.42         282 
 60.44         320 
 60.46         307 
 60.48         349 
 60.5          356 
 60.52         459 
 60.54         531 
 60.56         618 
 60.58         739 
 60.6          873 
 60.62         875 
 60.64         929 
 60.66         935 
 60.68         915 
 60.7          934 
 60.72         882 
 60.74         794 
 60.76         766 
 60.78         739 
 60.8          702 
 60.82         680 
 60.84         604 
 60.86         547 
 60.88         450 
 60.9          402 
 60.92         323 
 60.94         316 
 60.96         265 
 60.98         193 
 61            193 
 61.02         169 
 61.04         152 
 61.06         144 
 61.08         154 
 61.1          96 
 61.12         114 
 61.14         107 
 61.16         101 
 61.18         99 
 61.2          92 
 61.22         86 
 61.24         102 
 61.26         122 
 61.28         97 
 61.3          88 
 61.32         85 
 61.34         101 
 61.36         79 
 61.38         109 
 61.4          89 
 61.42         89 
 61.44         87 
 61.46         85 
 61.48         100 
 61.5          77 
 61.52         98 
 61.54         102 
 61.56         91 
 61.58         116 
 61.6          90 
 61.62         80 
 61.64         86 
 61.66         87 
 61.68         100 
 61.7          93 
 61.72         88 
 61.74         93 
 61.76         113 
 61.78         88 
 61.8          76 
 61.82         79 
 61.84         93 
 61.86         85 
 61.88         83 
 61.9          79 
 61.92         96 
 61.94         72 
 61.96         86 
 61.98         83 
 62            79 
 62.02         74 
 62.04         90 
 62.06         85 
 62.08         83 
 62.1          73 
 62.12         98 
 62.14         77 
 62.16         84 
 62.18         77 
 62.2          72 
 62.22         83 
 62.24         84 
 62.26         77 
 62.28         77 
 62.3          71 
 62.32         73 
 62.34         97 
 62.36         72 
 62.38         86 
 62.4          78 
 62.42         82 
 62.44         71 
 62.46         71 
 62.48         83 
 62.5          77 
 62.52         89 
 62.54         80 
 62.56         79 
 62.58         88 
 62.6          70 
 62.62         87 
 62.64         82 
 62.66         89 
 62.68         97 
 62.7          91 
 62.72         90 
 62.74         78 
 62.76         89 
 62.78         96 
 62.8          84 
 62.82         105 
 62.84         93 
 62.86         121 
 62.88         104 
 62.9          112 
 62.92         91 
 62.94         99 
 62.96         128 
 62.98         108 
 63            122 
 63.02         145 
 63.04         132 
 63.06         158 
 63.08         164 
 63.1          216 
 63.12         251 
 63.14         301 
 63.16         427 
 63.18         486 
 63.2          669 
 63.22         748 
 63.24         908 
 63.26         901 
 63.28         866 
 63.3          836 
 63.32         721 
 63.34         704 
 63.36         607 
 63.38         624 
 63.4          577 
 63.42         538 
 63.44         536 
 63.46         504 
 63.48         436 
 63.5          364 
 63.52         298 
 63.54         225 
 63.56         204 
 63.58         164 
 63.6          156 
 63.62         120 
 63.64         122 
 63.66         125 
 63.68         94 
 63.7          124 
 63.72         97 
 63.74         113 
 63.76         94 
 63.78         93 
 63.8          112 
 63.82         75 
 63.84         87 
 63.86         91 
 63.88         92 
 63.9          99 
 63.92         83 
 63.94         98 
 63.96         86 
 63.98         92 
 64            107 
 64.02         101 
 64.04         64 
 64.06         79 
 64.08         86 
 64.1          82 
 64.12         73 
 64.14         75 
 64.16         89 
 64.18         75 
 64.2          107 
 64.22         110 
 64.24         82 
 64.26         91 
 64.28         98 
 64.3          110 
 64.32         112 
 64.34         108 
 64.36         102 
 64.38         104 
 64.4          88 
 64.42         114 
 64.44         118 
 64.46         114 
 64.48         112 
 64.5          130 
 64.52         125 
 64.54         139 
 64.56         142 
 64.58         135 
 64.6          146 
 64.62         161 
 64.64         154 
 64.66         147 
 64.68         224 
 64.7          169 
 64.72         220 
 64.74         250 
 64.76         238 
 64.78         274 
 64.8          348 
 64.82         324 
 64.84         367 
 64.86         385 
 64.88         445 
 64.9          491 
 64.92         561 
 64.94         647 
 64.96         653 
 64.98         715 
 65            730 
 65.02         665 
 65.04         710 
 65.06         619 
 65.08         638 
 65.1          602 
 65.12         664 
 65.14         679 
 65.16         769 
 65.18         820 
 65.2          924 
 65.22         1024 
 65.24         1137 
 65.26         1239 
 65.28         1435 
 65.3          1485 
 65.32         1534 
 65.34         1592 
 65.36         1361 
 65.38         1392 
 65.4          1336 
 65.42         1206 
 65.44         1212 
 65.46         1336 
 65.48         1416 
 65.5          1556 
 65.52         1600 
 65.54         1683 
 65.56         1779 
 65.58         1685 
 65.6          1508 
 65.62         1450 
 65.64         1181 
 65.66         1082 
 65.68         1100 
 65.7          1017 
 65.72         1014 
 65.74         1026 
 65.76         906 
 65.78         859 
 65.8          716 
 65.82         670 
 65.84         539 
 65.86         427 
 65.88         370 
 65.9          320 
 65.92         281 
 65.94         241 
 65.96         224 
 65.98         210 
 66            202 
 66.02         168 
 66.04         199 
 66.06         185 
 66.08         159 
 66.1          160 
 66.12         149 
 66.14         151 
 66.16         148 
 66.18         130 
 66.2          159 
 66.22         129 
 66.24         119 
 66.26         122 
 66.28         97 
 66.3          146 
 66.32         123 
 66.34         136 
 66.36         126 
 66.38         112 
 66.4          104 
 66.42         111 
 66.44         105 
 66.46         121 
 66.48         111 
 66.5          105 
 66.52         92 
 66.54         91 
 66.56         114 
 66.58         102 
 66.6          94 
 66.62         98 
 66.64         97 
 66.66         97 
 66.68         92 
 66.7          100 
 66.72         75 
 66.74         103 
 66.76         106 
 66.78         101 
 66.8          110 
 66.82         97 
 66.84         95 
 66.86         97 
 66.88         107 
 66.9          96 
 66.92         97 
 66.94         98 
 66.96         102 
 66.98         111 
 67            96 
 67.02         125 
 67.04         122 
 67.06         104 
 67.08         123 
 67.1          111 
 67.12         120 
 67.14         115 
 67.16         104 
 67.18         108 
 67.2          117 
 67.22         111 
 67.24         130 
 67.26         151 
 67.28         133 
 67.3          149 
 67.32         142 
 67.34         153 
 67.36         143 
 67.38         178 
 67.4          151 
 67.42         151 
 67.44         173 
 67.46         181 
 67.48         201 
 67.5          219 
 67.52         265 
 67.54         317 
 67.56         371 
 67.58         437 
 67.6          490 
 67.62         479 
 67.64         483 
 67.66         587 
 67.68         593 
 67.7          622 
 67.72         748 
 67.74         838 
 67.76         997 
 67.78         1059 
 67.8          1231 
 67.82         1314 
 67.84         1238 
 67.86         1267 
 67.88         1166 
 67.9          1135 
 67.92         1074 
 67.94         992 
 67.96         956 
 67.98         949 
 68            902 
 68.02         896 
 68.04         833 
 68.06         730 
 68.08         690 
 68.1          579 
 68.12         490 
 68.14         455 
 68.16         389 
 68.18         319 
 68.2          300 
 68.22         265 
 68.24         231 
 68.26         230 
 68.28         176 
 68.3          162 
 68.32         185 
 68.34         158 
 68.36         137 
 68.38         141 
 68.4          119 
 68.42         121 
 68.44         106 
 68.46         124 
 68.48         115 
 68.5          130 
 68.52         123 
 68.54         111 
 68.56         126 
 68.58         133 
 68.6          124 
 68.62         155 
 68.64         142 
 68.66         136 
 68.68         160 
 68.7          169 
 68.72         183 
 68.74         161 
 68.76         186 
 68.78         192 
 68.8          233 
 68.82         222 
 68.84         242 
 68.86         252 
 68.88         314 
 68.9          320 
 68.92         347 
 68.94         375 
 68.96         416 
 68.98         430 
 69            486 
 69.02         507 
 69.04         512 
 69.06         553 
 69.08         530 
 69.1          585 
 69.12         588 
 69.14         612 
 69.16         622 
 69.18         662 
 69.2          738 
 69.22         696 
 69.24         712 
 69.26         704 
 69.28         712 
 69.3          703 
 69.32         727 
 69.34         691 
 69.36         731 
 69.38         648 
 69.4          663 
 69.42         664 
 69.44         613 
 69.46         649 
 69.48         588 
 69.5          657 
 69.52         667 
 69.54         829 
 69.56         855 
 69.58         900 
 69.6          903 
 69.62         888 
 69.64         878 
 69.66         811 
 69.68         690 
 69.7          656 
 69.72         619 
 69.74         587 
 69.76         530 
 69.78         525 
 69.8          583 
 69.82         464 
 69.84         472 
 69.86         390 
 69.88         312 
 69.9          292 
 69.92         252 
 69.94         209 
 69.96         192 
 69.98         184 
 70            161 
 70.02         173 
 70.04         135 
 70.06         110 
 70.08         157 
 70.1          107 
 70.12         110 
 70.14         103 
 70.16         116 
 70.18         106 
 70.2          114 
 70.22         102 
 70.24         114 
 70.26         96 
 70.28         117 
 70.3          112 
 70.32         97 
 70.34         103 
 70.36         112 
 70.38         88 
 70.4          85 
 70.42         106 
 70.44         87 
 70.46         76 
 70.48         69 
 70.5          91 
 70.52         82 
 70.54         80 
 70.56         105 
 70.58         84 
 70.6          88 
 70.62         83 
 70.64         88 
 70.66         80 
 70.68         86 
 70.7          85 
 70.72         68 
 70.74         80 
 70.76         94 
 70.78         94 
 70.8          87 
 70.82         88 
 70.84         82 
 70.86         83 
 70.88         84 
 70.9          82 
 70.92         80 
 70.94         81 
 70.96         90 
 70.98         91 
 71            85 
 71.02         89 
 71.04         86 
 71.06         71 
 71.08         81 
 71.1          95 
 71.12         93 
 71.14         97 
 71.16         86 
 71.18         98 
 71.2          94 
 71.22         97 
 71.24         110 
 71.26         98 
 71.28         142 
 71.3          125 
 71.32         146 
 71.34         157 
 71.36         164 
 71.38         194 
 71.4          199 
 71.42         225 
 71.44         295 
 71.46         331 
 71.48         343 
 71.5          387 
 71.52         459 
 71.54         534 
 71.56         472 
 71.58         490 
 71.6          498 
 71.62         438 
 71.64         454 
 71.66         429 
 71.68         398 
 71.7          353 
 71.72         369 
 71.74         347 
 71.76         344 
 71.78         316 
 71.8          331 
 71.82         295 
 71.84         292 
 71.86         296 
 71.88         285 
 71.9          281 
 71.92         308 
 71.94         338 
 71.96         425 
 71.98         527 
 72            560 
 72.02         591 
 72.04         628 
 72.06         611 
 72.08         549 
 72.1          574 
 72.12         550 
 72.14         550 
 72.16         507 
 72.18         514 
 72.2          465 
 72.22         442 
 72.24         445 
 72.26         425 
 72.28         400 
 72.3          374 
 72.32         357 
 72.34         319 
 72.36         292 
 72.38         285 
 72.4          269 
 72.42         229 
 72.44         243 
 72.46         236 
 72.48         256 
 72.5          241 
 72.52         250 
 72.54         220 
 72.56         240 
 72.58         240 
 72.6          255 
 72.62         273 
 72.64         310 
 72.66         302 
 72.68         298 
 72.7          324 
 72.72         378 
 72.74         382 
 72.76         371 
 72.78         379 
 72.8          441 
 72.82         471 
 72.84         405 
 72.86         451 
 72.88         449 
 72.9          477 
 72.92         453 
 72.94         467 
 72.96         424 
 72.98         404 
 73            380 
 73.02         384 
 73.04         376 
 73.06         362 
 73.08         350 
 73.1          346 
 73.12         339 
 73.14         351 
 73.16         349 
 73.18         363 
 73.2          363 
 73.22         424 
 73.24         394 
 73.26         460 
 73.28         556 
 73.3          596 
 73.32         663 
 73.34         653 
 73.36         752 
 73.38         793 
 73.4          789 
 73.42         798 
 73.44         840 
 73.46         802 
 73.48         875 
 73.5          882 
 73.52         938 
 73.54         994 
 73.56         945 
 73.58         966 
 73.6          889 
 73.62         992 
 73.64         895 
 73.66         872 
 73.68         875 
 73.7          905 
 73.72         879 
 73.74         912 
 73.76         890 
 73.78         879 
 73.8          792 
 73.82         809 
 73.84         748 
 73.86         678 
 73.88         590 
 73.9          534 
 73.92         542 
 73.93999      492 
 73.96         478 
 73.98         439 
 74            445 
 74.02         452 
 74.04         388 
 74.06         335 
 74.08         327 
 74.1          276 
 74.12         260 
 74.14         247 
 74.16         207 
 74.18         175 
 74.2          189 
 74.22         141 
 74.24         165 
 74.26         143 
 74.28         146 
 74.3          144 
 74.32         137 
 74.34         117 
 74.36         126 
 74.38         106 
 74.4          109 
 74.42         95 
 74.43999      97 
 74.46         88 
 74.48         105 
 74.5          87 
 74.52         81 
 74.54         106 
 74.56         89 
 74.58         76 
 74.6          100 
 74.62         93 
 74.64         64 
 74.66         82 
 74.68         95 
 74.7          97 
 74.72         78 
 74.74         81 
 74.76         77 
 74.78         94 
 74.8          86 
 74.82         73 
 74.84         87 
 74.86         76 
 74.88         87 
 74.9          80 
 74.92         66 
 74.93999      72 
 74.96         93 
 74.98         91 
 75            94 
