Pulver 4 LAGP  Original Data
 3151 
 12            239 
 12.02         223 
 12.04         230 
 12.06         270 
 12.08         194 
 12.1          211 
 12.12         223 
 12.14         234 
 12.16         224 
 12.18         231 
 12.2          251 
 12.22         212 
 12.24         211 
 12.26         236 
 12.28         222 
 12.3          208 
 12.32         225 
 12.34         231 
 12.36         213 
 12.38         230 
 12.4          235 
 12.42         231 
 12.44         201 
 12.46         222 
 12.48         222 
 12.5          240 
 12.52         235 
 12.54         215 
 12.56         226 
 12.58         240 
 12.6          236 
 12.62         228 
 12.64         224 
 12.66         238 
 12.68         234 
 12.7          253 
 12.72         213 
 12.74         212 
 12.76         230 
 12.78         247 
 12.8          261 
 12.82         229 
 12.84         217 
 12.86         226 
 12.88         209 
 12.9          238 
 12.92         227 
 12.94         239 
 12.96         240 
 12.98         221 
 13            205 
 13.02         234 
 13.04         239 
 13.06         237 
 13.08         225 
 13.1          232 
 13.12         219 
 13.14         227 
 13.16         221 
 13.18         210 
 13.2          225 
 13.22         225 
 13.24         235 
 13.26         215 
 13.28         203 
 13.3          223 
 13.32         206 
 13.34         227 
 13.36         216 
 13.38         221 
 13.4          215 
 13.42         270 
 13.44         209 
 13.46         211 
 13.48         214 
 13.5          217 
 13.52         225 
 13.54         212 
 13.56         244 
 13.58         213 
 13.6          239 
 13.62         183 
 13.64         230 
 13.66         219 
 13.68         220 
 13.7          216 
 13.72         244 
 13.74         239 
 13.76         202 
 13.78         226 
 13.8          205 
 13.82         214 
 13.84         211 
 13.86         207 
 13.88         185 
 13.9          237 
 13.92         187 
 13.94         202 
 13.96         185 
 13.98         190 
 14            208 
 14.02         184 
 14.04         183 
 14.06         218 
 14.08         193 
 14.1          182 
 14.12         201 
 14.14         220 
 14.16         222 
 14.18         184 
 14.2          218 
 14.22         184 
 14.24         208 
 14.26         204 
 14.28         201 
 14.3          204 
 14.32         200 
 14.34         224 
 14.36         212 
 14.38         211 
 14.4          205 
 14.42         216 
 14.44         229 
 14.46         252 
 14.48         256 
 14.5          254 
 14.52         269 
 14.54         277 
 14.56         303 
 14.58         359 
 14.6          349 
 14.62         369 
 14.64         435 
 14.66         461 
 14.68         488 
 14.7          536 
 14.72         601 
 14.74         703 
 14.76         777 
 14.78         812 
 14.8          980 
 14.82         1026 
 14.84         1178 
 14.86         1396 
 14.88         1651 
 14.9          1760 
 14.92         2092 
 14.94         2420 
 14.96         2983 
 14.98         3559 
 15            4333 
 15.02         5141 
 15.04         5733 
 15.06         6161 
 15.08         6239 
 15.1          5574 
 15.12         4311 
 15.14         2970 
 15.16         1982 
 15.18         1103 
 15.2          704 
 15.22         462 
 15.24         346 
 15.26         336 
 15.28         337 
 15.3          278 
 15.32         241 
 15.34         217 
 15.36         257 
 15.38         227 
 15.4          219 
 15.42         197 
 15.44         205 
 15.46         189 
 15.48         202 
 15.5          168 
 15.52         179 
 15.54         190 
 15.56         198 
 15.58         185 
 15.6          196 
 15.62         189 
 15.64         174 
 15.66         160 
 15.68         164 
 15.7          193 
 15.72         172 
 15.74         170 
 15.76         160 
 15.78         180 
 15.8          176 
 15.82         186 
 15.84         174 
 15.86         165 
 15.88         157 
 15.9          176 
 15.92         176 
 15.94         195 
 15.96         140 
 15.98         162 
 16            187 
 16.02         158 
 16.04         165 
 16.06         174 
 16.08         182 
 16.1          142 
 16.12         123 
 16.14         162 
 16.16         164 
 16.18         163 
 16.2          137 
 16.22         158 
 16.24         151 
 16.26         151 
 16.28         174 
 16.3          161 
 16.32         170 
 16.34         168 
 16.36         153 
 16.38         149 
 16.4          172 
 16.42         167 
 16.44         166 
 16.46         151 
 16.48         175 
 16.5          170 
 16.52         152 
 16.54         153 
 16.56         161 
 16.58         141 
 16.6          142 
 16.62         175 
 16.64         172 
 16.66         169 
 16.68         144 
 16.7          152 
 16.72         171 
 16.74         159 
 16.76         164 
 16.78         185 
 16.8          140 
 16.82         167 
 16.84         163 
 16.86         134 
 16.88         168 
 16.9          173 
 16.92         166 
 16.94         174 
 16.96         166 
 16.98         161 
 17            154 
 17.02         171 
 17.04         169 
 17.06         166 
 17.08         174 
 17.1          166 
 17.12         159 
 17.14         171 
 17.16         153 
 17.18         166 
 17.2          164 
 17.22         126 
 17.24         154 
 17.26         155 
 17.28         155 
 17.3          189 
 17.32         166 
 17.34         165 
 17.36         167 
 17.38         189 
 17.4          173 
 17.42         164 
 17.44         155 
 17.46         163 
 17.48         191 
 17.5          187 
 17.52         176 
 17.54         150 
 17.56         190 
 17.58         175 
 17.6          187 
 17.62         196 
 17.64         183 
 17.66         176 
 17.68         184 
 17.7          174 
 17.72         157 
 17.74         171 
 17.76         193 
 17.78         202 
 17.8          166 
 17.82         163 
 17.84         170 
 17.86         163 
 17.88         165 
 17.9          167 
 17.92         164 
 17.94         175 
 17.96         172 
 17.98         145 
 18            159 
 18.02         147 
 18.04         168 
 18.06         149 
 18.08         169 
 18.1          142 
 18.12         157 
 18.14         148 
 18.16         130 
 18.18         172 
 18.2          125 
 18.22         149 
 18.24         141 
 18.26         144 
 18.28         172 
 18.3          143 
 18.32         152 
 18.34         145 
 18.36         126 
 18.38         166 
 18.4          160 
 18.42         146 
 18.44         151 
 18.46         156 
 18.48         142 
 18.5          142 
 18.52         147 
 18.54         174 
 18.56         161 
 18.58         161 
 18.6          158 
 18.62         154 
 18.64         165 
 18.66         153 
 18.68         140 
 18.7          129 
 18.72         157 
 18.74         134 
 18.76         146 
 18.78         136 
 18.8          169 
 18.82         143 
 18.84         153 
 18.86         143 
 18.88         146 
 18.9          151 
 18.92         140 
 18.94         153 
 18.96         177 
 18.98         144 
 19            161 
 19.02         146 
 19.04         156 
 19.06         136 
 19.08         134 
 19.1          131 
 19.12         137 
 19.14         154 
 19.16         158 
 19.18         168 
 19.2          157 
 19.22         154 
 19.24         145 
 19.26         160 
 19.28         146 
 19.3          143 
 19.32         144 
 19.34         130 
 19.36         146 
 19.38         147 
 19.4          145 
 19.42         141 
 19.44         136 
 19.46         154 
 19.48         151 
 19.5          152 
 19.52         165 
 19.54         134 
 19.56         147 
 19.58         159 
 19.6          151 
 19.62         148 
 19.64         147 
 19.66         155 
 19.68         162 
 19.7          166 
 19.72         152 
 19.74         149 
 19.76         149 
 19.78         156 
 19.8          158 
 19.82         152 
 19.84         164 
 19.86         153 
 19.88         157 
 19.9          158 
 19.92         153 
 19.94         137 
 19.96         147 
 19.98         166 
 20            146 
 20.02         153 
 20.04         176 
 20.06         134 
 20.08         163 
 20.1          161 
 20.12         192 
 20.14         182 
 20.16         188 
 20.18         178 
 20.2          185 
 20.22         170 
 20.24         155 
 20.26         166 
 20.28         209 
 20.3          195 
 20.32         217 
 20.34         202 
 20.36         236 
 20.38         223 
 20.4          230 
 20.42         208 
 20.44         229 
 20.46         242 
 20.48         266 
 20.5          234 
 20.52         226 
 20.54         224 
 20.56         228 
 20.58         224 
 20.6          219 
 20.62         240 
 20.64         210 
 20.66         263 
 20.68         237 
 20.7          269 
 20.72         298 
 20.74         284 
 20.76         318 
 20.78         364 
 20.8          416 
 20.82         476 
 20.84         537 
 20.86         587 
 20.88         647 
 20.9          773 
 20.92         875 
 20.94         1000 
 20.96         1200 
 20.98         1401 
 21            1585 
 21.02         2041 
 21.04         2397 
 21.06         2798 
 21.08         3448 
 21.1          4126 
 21.12         5154 
 21.14         6257 
 21.16         7694 
 21.18         9457 
 21.2          11762 
 21.22         13863 
 21.24         16281 
 21.26         17469 
 21.28         17746 
 21.3          17064 
 21.32         15510 
 21.34         13365 
 21.36         11511 
 21.38         10248 
 21.4          9729 
 21.42         9878 
 21.44         10771 
 21.46         11739 
 21.48         12396 
 21.5          12268 
 21.52         11296 
 21.54         9696 
 21.56         7716 
 21.58         5495 
 21.6          3833 
 21.62         2597 
 21.64         1868 
 21.66         1496 
 21.68         1268 
 21.7          1192 
 21.72         1186 
 21.74         1184 
 21.76         1089 
 21.78         1108 
 21.8          1059 
 21.82         927 
 21.84         812 
 21.86         702 
 21.88         510 
 21.9          427 
 21.92         375 
 21.94         320 
 21.96         265 
 21.98         263 
 22            245 
 22.02         222 
 22.04         231 
 22.06         203 
 22.08         211 
 22.1          210 
 22.12         176 
 22.14         189 
 22.16         204 
 22.18         161 
 22.2          182 
 22.22         166 
 22.24         157 
 22.26         181 
 22.28         184 
 22.3          173 
 22.32         162 
 22.34         171 
 22.36         178 
 22.38         167 
 22.4          185 
 22.42         177 
 22.44         148 
 22.46         155 
 22.48         169 
 22.5          137 
 22.52         156 
 22.54         156 
 22.56         156 
 22.58         141 
 22.6          152 
 22.62         150 
 22.64         169 
 22.66         164 
 22.68         174 
 22.7          149 
 22.72         146 
 22.74         145 
 22.76         155 
 22.78         142 
 22.8          148 
 22.82         161 
 22.84         148 
 22.86         138 
 22.88         151 
 22.9          147 
 22.92         163 
 22.94         133 
 22.96         127 
 22.98         150 
 23            163 
 23.02         151 
 23.04         144 
 23.06         150 
 23.08         154 
 23.1          155 
 23.12         155 
 23.14         162 
 23.16         146 
 23.18         128 
 23.2          151 
 23.22         133 
 23.24         164 
 23.26         166 
 23.28         170 
 23.3          164 
 23.32         141 
 23.34         136 
 23.36         147 
 23.38         163 
 23.4          155 
 23.42         126 
 23.44         149 
 23.46         140 
 23.48         151 
 23.5          128 
 23.52         159 
 23.54         134 
 23.56         150 
 23.58         153 
 23.6          150 
 23.62         157 
 23.64         140 
 23.66         149 
 23.68         148 
 23.7          152 
 23.72         118 
 23.74         159 
 23.76         128 
 23.78         138 
 23.8          148 
 23.82         129 
 23.84         115 
 23.86         138 
 23.88         129 
 23.9          159 
 23.92         149 
 23.94         138 
 23.96         146 
 23.98         141 
 24            167 
 24.02         151 
 24.04         146 
 24.06         127 
 24.08         161 
 24.1          141 
 24.12         171 
 24.14         156 
 24.16         172 
 24.18         172 
 24.2          146 
 24.22         157 
 24.24         162 
 24.26         168 
 24.28         135 
 24.3          166 
 24.32         169 
 24.34         155 
 24.36         163 
 24.38         159 
 24.4          151 
 24.42         179 
 24.44         164 
 24.46         169 
 24.48         174 
 24.5          167 
 24.52         199 
 24.54         186 
 24.56         206 
 24.58         213 
 24.6          230 
 24.62         286 
 24.64         284 
 24.66         284 
 24.68         326 
 24.7          398 
 24.72         451 
 24.74         554 
 24.76         579 
 24.78         660 
 24.8          815 
 24.82         913 
 24.84         1071 
 24.86         1241 
 24.88         1441 
 24.9          1845 
 24.92         2143 
 24.94         2616 
 24.96         3271 
 24.98         4116 
 25            5170 
 25.02         6571 
 25.04         8191 
 25.06         10688 
 25.08         13506 
 25.1          16509 
 25.12         19123 
 25.14         21178 
 25.16         21812 
 25.18         20365 
 25.2          17905 
 25.22         14069 
 25.24         10233 
 25.26         7036 
 25.28         4647 
 25.3          2925 
 25.32         1888 
 25.34         1326 
 25.36         970 
 25.38         768 
 25.4          682 
 25.42         523 
 25.44         479 
 25.46         478 
 25.48         343 
 25.5          363 
 25.52         335 
 25.54         350 
 25.56         304 
 25.58         303 
 25.6          282 
 25.62         289 
 25.64         255 
 25.66         257 
 25.68         279 
 25.7          269 
 25.72         303 
 25.74         303 
 25.76         309 
 25.78         360 
 25.8          378 
 25.82         418 
 25.84         464 
 25.86         506 
 25.88         533 
 25.9          629 
 25.92         632 
 25.94         695 
 25.96         729 
 25.98         778 
 26            738 
 26.02         667 
 26.04         596 
 26.06         558 
 26.08         475 
 26.1          437 
 26.12         340 
 26.14         295 
 26.16         274 
 26.18         290 
 26.2          247 
 26.22         225 
 26.24         206 
 26.26         231 
 26.28         251 
 26.3          254 
 26.32         273 
 26.34         297 
 26.36         304 
 26.38         297 
 26.4          258 
 26.42         263 
 26.44         212 
 26.46         193 
 26.48         201 
 26.5          171 
 26.52         126 
 26.54         142 
 26.56         167 
 26.58         162 
 26.6          168 
 26.62         147 
 26.64         124 
 26.66         133 
 26.68         187 
 26.7          139 
 26.72         140 
 26.74         149 
 26.76         141 
 26.78         145 
 26.8          145 
 26.82         144 
 26.84         128 
 26.86         168 
 26.88         117 
 26.9          134 
 26.92         161 
 26.94         145 
 26.96         142 
 26.98         137 
 27            134 
 27.02         123 
 27.04         126 
 27.06         136 
 27.08         116 
 27.1          130 
 27.12         128 
 27.14         150 
 27.16         143 
 27.18         136 
 27.2          140 
 27.22         140 
 27.24         125 
 27.26         138 
 27.28         137 
 27.3          130 
 27.32         120 
 27.34         121 
 27.36         113 
 27.38         119 
 27.4          135 
 27.42         135 
 27.44         120 
 27.46         129 
 27.48         109 
 27.5          113 
 27.52         115 
 27.54         135 
 27.56         121 
 27.58         131 
 27.6          126 
 27.62         135 
 27.64         145 
 27.66         132 
 27.68         119 
 27.7          140 
 27.72         130 
 27.74         155 
 27.76         138 
 27.78         137 
 27.8          129 
 27.82         129 
 27.84         143 
 27.86         128 
 27.88         155 
 27.9          158 
 27.92         154 
 27.94         158 
 27.96         152 
 27.98         156 
 28            164 
 28.02         142 
 28.04         167 
 28.06         165 
 28.08         165 
 28.1          165 
 28.12         176 
 28.14         198 
 28.16         168 
 28.18         169 
 28.2          170 
 28.22         163 
 28.24         165 
 28.26         172 
 28.28         139 
 28.3          163 
 28.32         125 
 28.34         144 
 28.36         134 
 28.38         134 
 28.4          139 
 28.42         130 
 28.44         126 
 28.46         133 
 28.48         120 
 28.5          117 
 28.52         101 
 28.54         101 
 28.56         103 
 28.58         116 
 28.6          115 
 28.62         103 
 28.64         118 
 28.66         115 
 28.68         130 
 28.7          128 
 28.72         119 
 28.74         124 
 28.76         127 
 28.78         95 
 28.8          122 
 28.82         100 
 28.84         119 
 28.86         142 
 28.88         121 
 28.9          98 
 28.92         130 
 28.94         119 
 28.96         119 
 28.98         99 
 29            101 
 29.02         123 
 29.04         105 
 29.06         136 
 29.08         118 
 29.1          114 
 29.12         98 
 29.14         120 
 29.16         94 
 29.18         118 
 29.2          112 
 29.22         136 
 29.24         113 
 29.26         117 
 29.28         114 
 29.3          103 
 29.32         99 
 29.34         103 
 29.36         95 
 29.38         128 
 29.4          108 
 29.42         108 
 29.44         133 
 29.46         128 
 29.48         138 
 29.5          124 
 29.52         97 
 29.54         117 
 29.56         130 
 29.58         116 
 29.6          113 
 29.62         131 
 29.64         125 
 29.66         128 
 29.68         112 
 29.7          129 
 29.72         141 
 29.74         143 
 29.76         131 
 29.78         119 
 29.8          143 
 29.82         152 
 29.84         162 
 29.86         171 
 29.88         172 
 29.9          178 
 29.92         182 
 29.94         203 
 29.96         197 
 29.98         255 
 30            243 
 30.02         302 
 30.04         327 
 30.06         347 
 30.08         428 
 30.1          439 
 30.12         522 
 30.14         620 
 30.16         746 
 30.18         847 
 30.2          1028 
 30.22         1257 
 30.24         1726 
 30.26         2124 
 30.28         2816 
 30.3          3718 
 30.32         4836 
 30.34         6265 
 30.36         7876 
 30.38         9508 
 30.4          10900 
 30.42         11770 
 30.44         11573 
 30.46         10776 
 30.48         9382 
 30.5          7645 
 30.52         5887 
 30.54         4113 
 30.56         3052 
 30.58         1978 
 30.6          1335 
 30.62         921 
 30.64         607 
 30.66         540 
 30.68         407 
 30.7          398 
 30.72         350 
 30.74         302 
 30.76         292 
 30.78         285 
 30.8          242 
 30.82         266 
 30.84         234 
 30.86         209 
 30.88         199 
 30.9          207 
 30.92         202 
 30.94         199 
 30.96         210 
 30.98         195 
 31            186 
 31.02         210 
 31.04         186 
 31.06         173 
 31.08         197 
 31.1          204 
 31.12         192 
 31.14         188 
 31.16         187 
 31.18         207 
 31.2          191 
 31.22         209 
 31.24         138 
 31.26         158 
 31.28         167 
 31.3          153 
 31.32         135 
 31.34         126 
 31.36         154 
 31.38         119 
 31.4          101 
 31.42         124 
 31.44         111 
 31.46         110 
 31.48         101 
 31.5          113 
 31.52         114 
 31.54         129 
 31.56         96 
 31.58         97 
 31.6          115 
 31.62         130 
 31.64         93 
 31.66         97 
 31.68         119 
 31.7          111 
 31.72         110 
 31.74         109 
 31.76         109 
 31.78         96 
 31.8          107 
 31.82         120 
 31.84         91 
 31.86         121 
 31.88         114 
 31.9          111 
 31.92         107 
 31.94         112 
 31.96         100 
 31.98         102 
 32            101 
 32.02         85 
 32.04         104 
 32.06         117 
 32.08         102 
 32.1          95 
 32.12         108 
 32.14         106 
 32.16         115 
 32.18         109 
 32.2          104 
 32.22         115 
 32.24         102 
 32.26         108 
 32.28         111 
 32.3          99 
 32.32         97 
 32.34         98 
 32.36         111 
 32.38         94 
 32.4          108 
 32.42         103 
 32.44         112 
 32.46         97 
 32.48         100 
 32.5          101 
 32.52         100 
 32.54         97 
 32.56         106 
 32.58         102 
 32.6          105 
 32.62         105 
 32.64         110 
 32.66         95 
 32.68         105 
 32.7          120 
 32.72         115 
 32.74         104 
 32.76         128 
 32.78         81 
 32.8          126 
 32.82         115 
 32.84         132 
 32.86         129 
 32.88         119 
 32.9          132 
 32.92         137 
 32.94         170 
 32.96         150 
 32.98         173 
 33            145 
 33.02         210 
 33.04         198 
 33.06         221 
 33.08         258 
 33.1          253 
 33.12         286 
 33.14         372 
 33.16         394 
 33.18         477 
 33.2          589 
 33.22         748 
 33.24         940 
 33.26         1148 
 33.28         1534 
 33.3          1850 
 33.32         2493 
 33.34         2832 
 33.36         3268 
 33.38         3530 
 33.4          3578 
 33.42         3382 
 33.44         3112 
 33.46         2810 
 33.48         2342 
 33.5          1957 
 33.52         1518 
 33.54         1128 
 33.56         941 
 33.58         640 
 33.6          579 
 33.62         500 
 33.64         455 
 33.66         454 
 33.68         502 
 33.7          545 
 33.72         593 
 33.74         758 
 33.76         858 
 33.78         1058 
 33.8          1365 
 33.82         1753 
 33.84         2281 
 33.86         3051 
 33.88         3725 
 33.9          4731 
 33.92         5644 
 33.94         6544 
 33.96         7113 
 33.98         7091 
 34            7070 
 34.02         6517 
 34.04         5875 
 34.06         4921 
 34.08         3830 
 34.1          3109 
 34.12         2258 
 34.14         1740 
 34.16         1226 
 34.18         881 
 34.2          665 
 34.22         469 
 34.24         448 
 34.26         326 
 34.28         296 
 34.3          255 
 34.32         227 
 34.34         226 
 34.36         208 
 34.38         180 
 34.4          167 
 34.42         171 
 34.44         143 
 34.46         143 
 34.48         156 
 34.5          151 
 34.52         144 
 34.54         145 
 34.56         142 
 34.58         127 
 34.6          137 
 34.62         135 
 34.64         128 
 34.66         102 
 34.68         125 
 34.7          109 
 34.72         124 
 34.74         126 
 34.76         108 
 34.78         121 
 34.8          131 
 34.82         118 
 34.84         113 
 34.86         103 
 34.88         111 
 34.9          116 
 34.92         86 
 34.94         112 
 34.96         95 
 34.98         102 
 35            111 
 35.02         89 
 35.04         105 
 35.06         76 
 35.08         97 
 35.1          91 
 35.12         90 
 35.14         121 
 35.16         118 
 35.18         112 
 35.2          91 
 35.22         118 
 35.24         106 
 35.26         96 
 35.28         95 
 35.3          117 
 35.32         112 
 35.34         109 
 35.36         106 
 35.38         108 
 35.4          112 
 35.42         125 
 35.44         121 
 35.46         127 
 35.48         128 
 35.5          140 
 35.52         120 
 35.54         109 
 35.56         145 
 35.58         138 
 35.6          129 
 35.62         155 
 35.64         127 
 35.66         171 
 35.68         165 
 35.7          183 
 35.72         181 
 35.74         184 
 35.76         172 
 35.78         206 
 35.8          225 
 35.82         206 
 35.84         204 
 35.86         215 
 35.88         206 
 35.9          180 
 35.92         184 
 35.94         149 
 35.96         150 
 35.98         149 
 36            144 
 36.02         147 
 36.04         142 
 36.06         127 
 36.08         139 
 36.1          119 
 36.12         111 
 36.14         132 
 36.16         115 
 36.18         106 
 36.2          110 
 36.22         107 
 36.24         95 
 36.26         97 
 36.28         82 
 36.3          94 
 36.32         115 
 36.34         99 
 36.36         99 
 36.38         87 
 36.4          89 
 36.42         94 
 36.44         102 
 36.46         90 
 36.48         101 
 36.5          84 
 36.52         93 
 36.54         121 
 36.56         82 
 36.58         74 
 36.6          95 
 36.62         88 
 36.64         97 
 36.66         108 
 36.68         105 
 36.7          94 
 36.72         102 
 36.74         97 
 36.76         110 
 36.78         97 
 36.8          102 
 36.82         99 
 36.84         116 
 36.86         126 
 36.88         98 
 36.9          93 
 36.92         109 
 36.94         131 
 36.96         130 
 36.98         138 
 37            143 
 37.02         171 
 37.04         178 
 37.06         199 
 37.08         228 
 37.1          210 
 37.12         231 
 37.14         268 
 37.16         287 
 37.18         272 
 37.2          289 
 37.22         316 
 37.24         304 
 37.26         372 
 37.28         386 
 37.3          404 
 37.32         444 
 37.34         625 
 37.36         652 
 37.38         828 
 37.4          1003 
 37.42         1266 
 37.44         1616 
 37.46         2104 
 37.48         2783 
 37.5          3367 
 37.52         3975 
 37.54         4522 
 37.56         5035 
 37.58         5384 
 37.6          5611 
 37.62         5607 
 37.64         5845 
 37.66         5864 
 37.68         5395 
 37.7          5138 
 37.72         4625 
 37.74         4221 
 37.76         3424 
 37.78         3035 
 37.8          2583 
 37.82         1936 
 37.84         1490 
 37.86         1112 
 37.88         776 
 37.9          660 
 37.92         505 
 37.94         404 
 37.96         318 
 37.98         321 
 38            236 
 38.02         241 
 38.04         223 
 38.06         203 
 38.08         207 
 38.1          184 
 38.12         169 
 38.14         178 
 38.16         189 
 38.18         146 
 38.2          135 
 38.22         134 
 38.24         135 
 38.26         138 
 38.28         118 
 38.3          126 
 38.32         93 
 38.34         121 
 38.36         106 
 38.38         136 
 38.4          101 
 38.42         93 
 38.44         107 
 38.46         113 
 38.48         91 
 38.5          109 
 38.52         113 
 38.54         104 
 38.56         100 
 38.58         85 
 38.6          99 
 38.62         93 
 38.64         83 
 38.66         119 
 38.68         69 
 38.7          108 
 38.72         106 
 38.74         109 
 38.76         84 
 38.78         110 
 38.8          111 
 38.82         91 
 38.84         88 
 38.86         100 
 38.88         103 
 38.9          88 
 38.92         94 
 38.94         98 
 38.96         103 
 38.98         82 
 39            99 
 39.02         105 
 39.04         93 
 39.06         79 
 39.08         101 
 39.1          103 
 39.12         98 
 39.14         102 
 39.16         88 
 39.18         101 
 39.2          107 
 39.22         119 
 39.24         116 
 39.26         124 
 39.28         88 
 39.3          112 
 39.32         101 
 39.34         103 
 39.36         119 
 39.38         96 
 39.4          103 
 39.42         108 
 39.44         103 
 39.46         94 
 39.48         100 
 39.5          109 
 39.52         103 
 39.54         120 
 39.56         116 
 39.58         110 
 39.6          113 
 39.62         122 
 39.64         111 
 39.66         106 
 39.68         140 
 39.7          139 
 39.72         120 
 39.74         111 
 39.76         139 
 39.78         137 
 39.8          145 
 39.82         142 
 39.84         179 
 39.86         159 
 39.88         199 
 39.9          194 
 39.92         207 
 39.94         224 
 39.96         212 
 39.98         233 
 40            246 
 40.02         247 
 40.04         245 
 40.06         232 
 40.08         218 
 40.1          206 
 40.12         197 
 40.14         189 
 40.16         140 
 40.18         146 
 40.2          123 
 40.22         103 
 40.24         120 
 40.26         98 
 40.28         109 
 40.3          114 
 40.32         105 
 40.34         89 
 40.36         92 
 40.38         79 
 40.4          86 
 40.42         102 
 40.44         90 
 40.46         93 
 40.48         75 
 40.5          93 
 40.52         80 
 40.54         89 
 40.56         83 
 40.58         99 
 40.6          92 
 40.62         94 
 40.64         90 
 40.66         88 
 40.68         88 
 40.7          74 
 40.72         85 
 40.74         86 
 40.76         90 
 40.78         82 
 40.8          94 
 40.82         96 
 40.84         98 
 40.86         72 
 40.88         96 
 40.9          101 
 40.92         73 
 40.94         80 
 40.96         88 
 40.98         100 
 41            81 
 41.02         93 
 41.04         85 
 41.06         83 
 41.08         97 
 41.1          80 
 41.12         103 
 41.14         95 
 41.16         87 
 41.18         89 
 41.2          102 
 41.22         93 
 41.24         83 
 41.26         89 
 41.28         88 
 41.3          92 
 41.32         96 
 41.34         99 
 41.36         80 
 41.38         86 
 41.4          110 
 41.42         81 
 41.44         86 
 41.46         109 
 41.48         103 
 41.5          100 
 41.52         113 
 41.54         117 
 41.56         98 
 41.58         95 
 41.6          96 
 41.62         106 
 41.64         111 
 41.66         110 
 41.68         101 
 41.7          87 
 41.72         98 
 41.74         109 
 41.76         122 
 41.78         90 
 41.8          103 
 41.82         102 
 41.84         91 
 41.86         86 
 41.88         85 
 41.9          105 
 41.92         111 
 41.94         99 
 41.96         96 
 41.98         78 
 42            90 
 42.02         73 
 42.04         114 
 42.06         88 
 42.08         84 
 42.1          84 
 42.12         93 
 42.14         76 
 42.16         93 
 42.18         91 
 42.2          102 
 42.22         97 
 42.24         107 
 42.26         103 
 42.28         95 
 42.3          123 
 42.32         112 
 42.34         111 
 42.36         115 
 42.38         102 
 42.4          94 
 42.42         90 
 42.44         93 
 42.46         112 
 42.48         83 
 42.5          101 
 42.52         86 
 42.54         73 
 42.56         90 
 42.58         93 
 42.6          84 
 42.62         85 
 42.64         80 
 42.66         81 
 42.68         99 
 42.7          91 
 42.72         108 
 42.74         84 
 42.76         90 
 42.78         91 
 42.8          93 
 42.82         78 
 42.84         100 
 42.86         90 
 42.88         101 
 42.9          93 
 42.92         102 
 42.94         99 
 42.96         71 
 42.98         120 
 43            106 
 43.02         115 
 43.04         120 
 43.06         139 
 43.08         145 
 43.1          134 
 43.12         156 
 43.14         208 
 43.16         254 
 43.18         260 
 43.2          296 
 43.22         402 
 43.24         506 
 43.26         546 
 43.28         606 
 43.3          676 
 43.32         673 
 43.34         723 
 43.36         687 
 43.38         679 
 43.4          695 
 43.42         614 
 43.44         601 
 43.46         491 
 43.48         426 
 43.5          329 
 43.52         324 
 43.54         241 
 43.56         249 
 43.58         190 
 43.6          164 
 43.62         163 
 43.64         130 
 43.66         136 
 43.68         155 
 43.7          129 
 43.72         128 
 43.74         169 
 43.76         129 
 43.78         121 
 43.8          142 
 43.82         120 
 43.84         147 
 43.86         133 
 43.88         137 
 43.9          155 
 43.92         116 
 43.94         122 
 43.96         106 
 43.98         111 
 44            103 
 44.02         103 
 44.04         100 
 44.06         101 
 44.08         102 
 44.1          100 
 44.12         86 
 44.14         92 
 44.16         80 
 44.18         113 
 44.2          87 
 44.22         91 
 44.24         103 
 44.26         94 
 44.28         90 
 44.3          112 
 44.32         92 
 44.34         108 
 44.36         117 
 44.38         111 
 44.4          100 
 44.42         102 
 44.44         109 
 44.46         81 
 44.48         106 
 44.5          102 
 44.52         101 
 44.54         110 
 44.56         103 
 44.58         91 
 44.6          112 
 44.62         111 
 44.64         101 
 44.66         90 
 44.68         90 
 44.7          110 
 44.72         93 
 44.74         90 
 44.76         96 
 44.78         107 
 44.8          96 
 44.82         113 
 44.84         108 
 44.86         95 
 44.88         91 
 44.9          121 
 44.92         121 
 44.94         109 
 44.96         125 
 44.98         125 
 45            125 
 45.02         117 
 45.04         157 
 45.06         155 
 45.08         176 
 45.1          196 
 45.12         245 
 45.14         256 
 45.16         274 
 45.18         357 
 45.2          449 
 45.22         511 
 45.24         630 
 45.26         696 
 45.28         799 
 45.3          882 
 45.32         911 
 45.34         946 
 45.36         950 
 45.38         974 
 45.4          954 
 45.42         936 
 45.44         883 
 45.46         882 
 45.48         824 
 45.5          721 
 45.52         727 
 45.54         701 
 45.56         698 
 45.58         673 
 45.6          660 
 45.62         540 
 45.64         555 
 45.66         531 
 45.68         482 
 45.7          504 
 45.72         566 
 45.74         553 
 45.76         587 
 45.78         653 
 45.8          718 
 45.82         788 
 45.84         863 
 45.86         905 
 45.88         888 
 45.9          862 
 45.92         804 
 45.94         797 
 45.96         732 
 45.98         625 
 46            565 
 46.02         522 
 46.04         467 
 46.06         396 
 46.08         362 
 46.1          370 
 46.12         276 
 46.14         253 
 46.16         219 
 46.18         214 
 46.2          234 
 46.22         231 
 46.24         246 
 46.26         240 
 46.28         285 
 46.3          296 
 46.32         335 
 46.34         338 
 46.36         374 
 46.38         340 
 46.4          387 
 46.42         390 
 46.44         400 
 46.46         423 
 46.48         455 
 46.5          467 
 46.52         540 
 46.54         518 
 46.56         549 
 46.58         577 
 46.6          535 
 46.62         541 
 46.64         450 
 46.66         424 
 46.68         424 
 46.7          404 
 46.72         310 
 46.74         262 
 46.76         217 
 46.78         183 
 46.8          180 
 46.82         147 
 46.84         155 
 46.86         135 
 46.88         100 
 46.9          99 
 46.92         106 
 46.94         96 
 46.96         99 
 46.98         94 
 47            93 
 47.02         89 
 47.04         91 
 47.06         80 
 47.08         101 
 47.1          91 
 47.12         76 
 47.14         97 
 47.16         96 
 47.18         97 
 47.2          75 
 47.22         91 
 47.24         85 
 47.26         102 
 47.28         85 
 47.3          88 
 47.32         81 
 47.34         92 
 47.36         82 
 47.38         93 
 47.4          93 
 47.42         105 
 47.44         60 
 47.46         102 
 47.48         87 
 47.5          101 
 47.52         98 
 47.54         82 
 47.56         95 
 47.58         74 
 47.6          93 
 47.62         75 
 47.64         74 
 47.66         104 
 47.68         80 
 47.7          83 
 47.72         74 
 47.74         80 
 47.76         113 
 47.78         89 
 47.8          102 
 47.82         104 
 47.84         97 
 47.86         95 
 47.88         90 
 47.9          94 
 47.92         108 
 47.94         96 
 47.96         111 
 47.98         93 
 48            114 
 48.02         88 
 48.04         102 
 48.06         120 
 48.08         129 
 48.1          123 
 48.12         110 
 48.14         142 
 48.16         100 
 48.18         123 
 48.2          128 
 48.22         154 
 48.24         123 
 48.26         134 
 48.28         131 
 48.3          133 
 48.32         144 
 48.34         148 
 48.36         128 
 48.38         130 
 48.4          150 
 48.42         152 
 48.44         165 
 48.46         189 
 48.48         184 
 48.5          205 
 48.52         205 
 48.54         248 
 48.56         261 
 48.58         283 
 48.6          347 
 48.62         346 
 48.64         407 
 48.66         521 
 48.68         633 
 48.7          909 
 48.72         1144 
 48.74         1455 
 48.76         1793 
 48.78         2255 
 48.8          2601 
 48.82         2962 
 48.84         3201 
 48.86         3410 
 48.88         3449 
 48.9          3287 
 48.92         3187 
 48.94         2995 
 48.96         2840 
 48.98         2554 
 49            2384 
 49.02         2180 
 49.04         2070 
 49.06         1950 
 49.08         1862 
 49.1          1951 
 49.12         2018 
 49.14         2099 
 49.16         2124 
 49.18         2081 
 49.2          2009 
 49.22         1918 
 49.24         1848 
 49.26         1690 
 49.28         1518 
 49.3          1398 
 49.32         1111 
 49.34         1026 
 49.36         857 
 49.38         664 
 49.4          529 
 49.42         425 
 49.44         338 
 49.46         295 
 49.48         239 
 49.5          227 
 49.52         170 
 49.54         163 
 49.56         167 
 49.58         139 
 49.6          139 
 49.62         130 
 49.64         131 
 49.66         126 
 49.68         120 
 49.7          123 
 49.72         133 
 49.74         135 
 49.76         101 
 49.78         113 
 49.8          109 
 49.82         111 
 49.84         129 
 49.86         113 
 49.88         118 
 49.9          101 
 49.92         116 
 49.94         91 
 49.96         75 
 49.98         100 
 50            86 
 50.02         79 
 50.04         93 
 50.06         88 
 50.08         98 
 50.1          100 
 50.12         84 
 50.14         80 
 50.16         78 
 50.18         108 
 50.2          94 
 50.22         94 
 50.24         97 
 50.26         94 
 50.28         99 
 50.3          75 
 50.32         86 
 50.34         97 
 50.36         98 
 50.38         92 
 50.4          92 
 50.42         71 
 50.44         95 
 50.46         97 
 50.48         89 
 50.5          95 
 50.52         90 
 50.54         87 
 50.56         118 
 50.58         99 
 50.6          94 
 50.62         97 
 50.64         89 
 50.66         99 
 50.68         98 
 50.7          112 
 50.72         116 
 50.74         133 
 50.76         109 
 50.78         127 
 50.8          145 
 50.82         146 
 50.84         138 
 50.86         168 
 50.88         174 
 50.9          227 
 50.92         240 
 50.94         338 
 50.96         344 
 50.98         397 
 51            488 
 51.02         529 
 51.04         637 
 51.06         710 
 51.08         788 
 51.1          698 
 51.12         748 
 51.14         826 
 51.16         894 
 51.18         858 
 51.2          854 
 51.22         860 
 51.24         819 
 51.26         769 
 51.28         804 
 51.3          696 
 51.32         680 
 51.34         659 
 51.36         621 
 51.38         588 
 51.4          607 
 51.42         620 
 51.44         644 
 51.46         649 
 51.48         813 
 51.5          981 
 51.52         1217 
 51.54         1442 
 51.56         1721 
 51.58         2029 
 51.6          2375 
 51.62         2519 
 51.64         2545 
 51.66         2559 
 51.68         2555 
 51.7          2487 
 51.72         2353 
 51.74         2218 
 51.76         2221 
 51.78         2137 
 51.8          1931 
 51.82         1801 
 51.84         1644 
 51.86         1479 
 51.88         1371 
 51.9          1226 
 51.92         1064 
 51.94         939 
 51.96         766 
 51.98         704 
 52            588 
 52.02         546 
 52.04         452 
 52.06         382 
 52.08         305 
 52.1          258 
 52.12         232 
 52.14         208 
 52.16         155 
 52.18         152 
 52.2          129 
 52.22         139 
 52.24         130 
 52.26         115 
 52.28         117 
 52.3          119 
 52.32         126 
 52.34         100 
 52.36         101 
 52.38         106 
 52.4          114 
 52.42         105 
 52.44         106 
 52.46         106 
 52.48         108 
 52.5          109 
 52.52         85 
 52.54         105 
 52.56         90 
 52.58         99 
 52.6          103 
 52.62         99 
 52.64         100 
 52.66         105 
 52.68         101 
 52.7          87 
 52.72         98 
 52.74         87 
 52.76         88 
 52.78         87 
 52.8          90 
 52.82         90 
 52.84         106 
 52.86         107 
 52.88         84 
 52.9          93 
 52.92         80 
 52.94         98 
 52.96         90 
 52.98         90 
 53            89 
 53.02         103 
 53.04         112 
 53.06         100 
 53.08         100 
 53.1          104 
 53.12         98 
 53.14         105 
 53.16         128 
 53.18         113 
 53.2          137 
 53.22         129 
 53.24         179 
 53.26         184 
 53.28         206 
 53.3          206 
 53.32         241 
 53.34         221 
 53.36         254 
 53.38         267 
 53.4          324 
 53.42         292 
 53.44         325 
 53.46         307 
 53.48         314 
 53.5          302 
 53.52         295 
 53.54         283 
 53.56         275 
 53.58         271 
 53.6          249 
 53.62         244 
 53.64         266 
 53.66         226 
 53.68         229 
 53.7          211 
 53.72         177 
 53.74         147 
 53.76         161 
 53.78         149 
 53.8          147 
 53.82         122 
 53.84         120 
 53.86         101 
 53.88         107 
 53.9          117 
 53.92         104 
 53.94         103 
 53.96         82 
 53.98         86 
 54            92 
 54.02         106 
 54.04         77 
 54.06         110 
 54.08         84 
 54.1          85 
 54.12         88 
 54.14         89 
 54.16         115 
 54.18         85 
 54.2          106 
 54.22         103 
 54.24         118 
 54.26         120 
 54.28         121 
 54.3          101 
 54.32         119 
 54.34         98 
 54.36         99 
 54.38         115 
 54.4          97 
 54.42         115 
 54.44         86 
 54.46         85 
 54.48         75 
 54.5          80 
 54.52         93 
 54.54         91 
 54.56         120 
 54.58         92 
 54.6          85 
 54.62         64 
 54.64         79 
 54.66         72 
 54.68         73 
 54.7          92 
 54.72         65 
 54.74         55 
 54.76         79 
 54.78         92 
 54.8          80 
 54.82         70 
 54.84         78 
 54.86         81 
 54.88         75 
 54.9          89 
 54.92         73 
 54.94         74 
 54.96         65 
 54.98         87 
 55            60 
 55.02         95 
 55.04         85 
 55.06         76 
 55.08         79 
 55.1          87 
 55.12         100 
 55.14         81 
 55.16         85 
 55.18         84 
 55.2          89 
 55.22         73 
 55.24         94 
 55.26         78 
 55.28         83 
 55.3          106 
 55.32         86 
 55.34         98 
 55.36         106 
 55.38         108 
 55.4          91 
 55.42         102 
 55.44         93 
 55.46         99 
 55.48         115 
 55.5          136 
 55.52         119 
 55.54         133 
 55.56         141 
 55.58         133 
 55.6          169 
 55.62         160 
 55.64         178 
 55.66         176 
 55.68         230 
 55.7          256 
 55.72         322 
 55.74         337 
 55.76         490 
 55.78         515 
 55.8          704 
 55.82         750 
 55.84         831 
 55.86         938 
 55.88         977 
 55.9          997 
 55.92         982 
 55.94         1025 
 55.96         1010 
 55.98         1096 
 56            1137 
 56.02         1260 
 56.04         1353 
 56.06         1486 
 56.08         1657 
 56.1          1788 
 56.12         1748 
 56.14         1959 
 56.16         1909 
 56.18         1935 
 56.2          1963 
 56.22         1944 
 56.24         1896 
 56.26         1782 
 56.28         1666 
 56.3          1477 
 56.32         1373 
 56.34         1247 
 56.36         1050 
 56.38         909 
 56.4          769 
 56.42         683 
 56.44         593 
 56.46         461 
 56.48         432 
 56.5          356 
 56.52         289 
 56.54         254 
 56.56         227 
 56.58         199 
 56.6          187 
 56.62         182 
 56.64         155 
 56.66         157 
 56.68         144 
 56.7          140 
 56.72         130 
 56.74         144 
 56.76         117 
 56.78         135 
 56.8          115 
 56.82         144 
 56.84         128 
 56.86         132 
 56.88         101 
 56.9          129 
 56.92         121 
 56.94         105 
 56.96         92 
 56.98         90 
 57            121 
 57.02         89 
 57.04         79 
 57.06         90 
 57.08         78 
 57.1          84 
 57.12         102 
 57.14         97 
 57.16         76 
 57.18         91 
 57.2          82 
 57.22         82 
 57.24         85 
 57.26         72 
 57.28         104 
 57.3          100 
 57.32         101 
 57.34         90 
 57.36         92 
 57.38         94 
 57.4          92 
 57.42         62 
 57.44         87 
 57.46         93 
 57.48         90 
 57.5          81 
 57.52         94 
 57.54         79 
 57.56         91 
 57.58         87 
 57.6          83 
 57.62         97 
 57.64         94 
 57.66         91 
 57.68         80 
 57.7          77 
 57.72         90 
 57.74         78 
 57.76         94 
 57.78         109 
 57.8          101 
 57.82         105 
 57.84         78 
 57.86         108 
 57.88         113 
 57.9          104 
 57.92         121 
 57.94         109 
 57.96         131 
 57.98         152 
 58            132 
 58.02         167 
 58.04         163 
 58.06         179 
 58.08         237 
 58.1          266 
 58.12         288 
 58.14         318 
 58.16         334 
 58.18         337 
 58.2          388 
 58.22         402 
 58.24         434 
 58.26         396 
 58.28         478 
 58.3          465 
 58.32         479 
 58.34         486 
 58.36         443 
 58.38         471 
 58.4          478 
 58.42         457 
 58.44         429 
 58.46         395 
 58.48         494 
 58.5          462 
 58.52         503 
 58.54         518 
 58.56         538 
 58.58         627 
 58.6          697 
 58.62         843 
 58.64         990 
 58.66         1146 
 58.68         1263 
 58.7          1573 
 58.72         1636 
 58.74         1732 
 58.76         1834 
 58.78         1849 
 58.8          1852 
 58.82         1768 
 58.84         1860 
 58.86         1847 
 58.88         2037 
 58.9          2092 
 58.92         2273 
 58.94         2583 
 58.96         2689 
 58.98         2901 
 59            2987 
 59.02         3224 
 59.04         3392 
 59.06         3452 
 59.08         3546 
 59.1          3596 
 59.12         3450 
 59.14         3535 
 59.16         3197 
 59.18         3099 
 59.2          2886 
 59.22         2720 
 59.24         2464 
 59.26         2134 
 59.28         1936 
 59.3          1620 
 59.32         1468 
 59.34         1182 
 59.36         1054 
 59.38         803 
 59.4          719 
 59.42         568 
 59.44         491 
 59.46         410 
 59.48         301 
 59.5          288 
 59.52         251 
 59.54         233 
 59.56         190 
 59.58         194 
 59.6          176 
 59.62         159 
 59.64         145 
 59.66         137 
 59.68         169 
 59.7          138 
 59.72         145 
 59.74         127 
 59.76         149 
 59.78         131 
 59.8          152 
 59.82         121 
 59.84         127 
 59.86         126 
 59.88         112 
 59.9          109 
 59.92         128 
 59.94         107 
 59.96         139 
 59.98         108 
 60            110 
 60.02         113 
 60.04         120 
 60.06         124 
 60.08         110 
 60.1          117 
 60.12         107 
 60.14         124 
 60.16         131 
 60.18         134 
 60.2          142 
 60.22         167 
 60.24         186 
 60.26         177 
 60.28         193 
 60.3          220 
 60.32         204 
 60.34         250 
 60.36         257 
 60.38         259 
 60.4          286 
 60.42         292 
 60.44         275 
 60.46         319 
 60.48         276 
 60.5          294 
 60.52         319 
 60.54         330 
 60.56         400 
 60.58         440 
 60.6          486 
 60.62         498 
 60.64         570 
 60.66         641 
 60.68         723 
 60.7          802 
 60.72         762 
 60.74         823 
 60.76         778 
 60.78         844 
 60.8          797 
 60.82         813 
 60.84         813 
 60.86         707 
 60.88         722 
 60.9          662 
 60.92         558 
 60.94         568 
 60.96         454 
 60.98         468 
 61            380 
 61.02         328 
 61.04         322 
 61.06         243 
 61.08         226 
 61.1          190 
 61.12         172 
 61.14         150 
 61.16         136 
 61.18         119 
 61.2          110 
 61.22         111 
 61.24         116 
 61.26         99 
 61.28         106 
 61.3          86 
 61.32         91 
 61.34         94 
 61.36         92 
 61.38         84 
 61.4          103 
 61.42         98 
 61.44         69 
 61.46         97 
 61.48         113 
 61.5          88 
 61.52         89 
 61.54         82 
 61.56         97 
 61.58         101 
 61.6          114 
 61.62         85 
 61.64         93 
 61.66         95 
 61.68         85 
 61.7          87 
 61.72         90 
 61.74         99 
 61.76         97 
 61.78         76 
 61.8          82 
 61.82         92 
 61.84         82 
 61.86         80 
 61.88         87 
 61.9          72 
 61.92         85 
 61.94         80 
 61.96         94 
 61.98         75 
 62            86 
 62.02         78 
 62.04         83 
 62.06         80 
 62.08         86 
 62.1          82 
 62.12         89 
 62.14         73 
 62.16         91 
 62.18         83 
 62.2          83 
 62.22         94 
 62.24         69 
 62.26         88 
 62.28         89 
 62.3          83 
 62.32         95 
 62.34         85 
 62.36         74 
 62.38         90 
 62.4          90 
 62.42         84 
 62.44         88 
 62.46         77 
 62.48         76 
 62.5          77 
 62.52         84 
 62.54         88 
 62.56         82 
 62.58         102 
 62.6          75 
 62.62         86 
 62.64         71 
 62.66         65 
 62.68         76 
 62.7          91 
 62.72         70 
 62.74         87 
 62.76         89 
 62.78         90 
 62.8          87 
 62.82         85 
 62.84         86 
 62.86         99 
 62.88         98 
 62.9          86 
 62.92         109 
 62.94         106 
 62.96         105 
 62.98         112 
 63            99 
 63.02         121 
 63.04         136 
 63.06         112 
 63.08         153 
 63.1          179 
 63.12         227 
 63.14         272 
 63.16         337 
 63.18         418 
 63.2          470 
 63.22         572 
 63.24         650 
 63.26         729 
 63.28         782 
 63.3          824 
 63.32         745 
 63.34         737 
 63.36         770 
 63.38         671 
 63.4          659 
 63.42         631 
 63.44         591 
 63.46         552 
 63.48         525 
 63.5          462 
 63.52         384 
 63.54         360 
 63.56         287 
 63.58         250 
 63.6          215 
 63.62         181 
 63.64         161 
 63.66         158 
 63.68         128 
 63.7          129 
 63.72         122 
 63.74         125 
 63.76         104 
 63.78         108 
 63.8          107 
 63.82         76 
 63.84         82 
 63.86         114 
 63.88         85 
 63.9          101 
 63.92         104 
 63.94         90 
 63.96         67 
 63.98         115 
 64            99 
 64.02         88 
 64.04         86 
 64.06         91 
 64.08         94 
 64.1          86 
 64.12         88 
 64.14         104 
 64.16         107 
 64.18         96 
 64.2          103 
 64.22         100 
 64.24         94 
 64.26         107 
 64.28         91 
 64.3          93 
 64.32         99 
 64.34         116 
 64.36         118 
 64.38         102 
 64.4          132 
 64.42         135 
 64.44         132 
 64.46         137 
 64.48         151 
 64.5          165 
 64.52         177 
 64.54         165 
 64.56         227 
 64.58         223 
 64.6          213 
 64.62         270 
 64.64         260 
 64.66         280 
 64.68         317 
 64.7          339 
 64.72         335 
 64.74         346 
 64.76         350 
 64.78         361 
 64.8          397 
 64.82         351 
 64.84         370 
 64.86         421 
 64.88         406 
 64.9          429 
 64.92         459 
 64.94         519 
 64.96         544 
 64.98         530 
 65            566 
 65.02         552 
 65.04         556 
 65.06         574 
 65.08         641 
 65.1          624 
 65.12         663 
 65.14         733 
 65.16         806 
 65.18         933 
 65.2          971 
 65.22         1109 
 65.24         1305 
 65.26         1276 
 65.28         1359 
 65.3          1373 
 65.32         1405 
 65.34         1434 
 65.36         1361 
 65.38         1358 
 65.4          1228 
 65.42         1217 
 65.44         1225 
 65.46         1235 
 65.48         1118 
 65.5          1111 
 65.52         1164 
 65.54         1225 
 65.56         1218 
 65.58         1169 
 65.6          1335 
 65.62         1327 
 65.64         1351 
 65.66         1307 
 65.68         1267 
 65.7          1217 
 65.72         1153 
 65.74         1131 
 65.76         1084 
 65.78         985 
 65.8          957 
 65.82         841 
 65.84         871 
 65.86         695 
 65.88         629 
 65.9          572 
 65.92         544 
 65.94         401 
 65.96         406 
 65.98         298 
 66            286 
 66.02         234 
 66.04         215 
 66.06         187 
 66.08         183 
 66.1          170 
 66.12         148 
 66.14         143 
 66.16         131 
 66.18         108 
 66.2          121 
 66.22         133 
 66.24         114 
 66.26         113 
 66.28         93 
 66.3          109 
 66.32         115 
 66.34         113 
 66.36         91 
 66.38         111 
 66.4          118 
 66.42         100 
 66.44         101 
 66.46         98 
 66.48         103 
 66.5          91 
 66.52         103 
 66.54         97 
 66.56         124 
 66.58         81 
 66.6          96 
 66.62         91 
 66.64         91 
 66.66         90 
 66.68         104 
 66.7          81 
 66.72         114 
 66.74         97 
 66.76         92 
 66.78         87 
 66.8          107 
 66.82         97 
 66.84         92 
 66.86         90 
 66.88         95 
 66.9          88 
 66.92         98 
 66.94         87 
 66.96         88 
 66.98         81 
 67            92 
 67.02         89 
 67.04         117 
 67.06         97 
 67.08         83 
 67.1          114 
 67.12         97 
 67.14         89 
 67.16         93 
 67.18         105 
 67.2          91 
 67.22         113 
 67.24         102 
 67.26         87 
 67.28         86 
 67.3          111 
 67.32         105 
 67.34         116 
 67.36         131 
 67.38         113 
 67.4          119 
 67.42         110 
 67.44         118 
 67.46         153 
 67.48         156 
 67.5          174 
 67.52         213 
 67.54         238 
 67.56         252 
 67.58         320 
 67.6          345 
 67.62         373 
 67.64         414 
 67.66         438 
 67.68         469 
 67.7          493 
 67.72         512 
 67.74         541 
 67.76         571 
 67.78         623 
 67.8          655 
 67.82         755 
 67.84         769 
 67.86         883 
 67.88         908 
 67.9          971 
 67.92         1033 
 67.94         1065 
 67.96         1069 
 67.98         1046 
 68            1053 
 68.02         1064 
 68.04         1049 
 68.06         1014 
 68.08         946 
 68.1          889 
 68.12         923 
 68.14         839 
 68.16         744 
 68.18         668 
 68.2          632 
 68.22         589 
 68.24         500 
 68.26         465 
 68.28         390 
 68.3          358 
 68.32         312 
 68.34         260 
 68.36         248 
 68.38         213 
 68.4          199 
 68.42         202 
 68.44         173 
 68.46         135 
 68.48         155 
 68.5          138 
 68.52         118 
 68.54         135 
 68.56         152 
 68.58         155 
 68.6          168 
 68.62         158 
 68.64         173 
 68.66         167 
 68.68         184 
 68.7          200 
 68.72         210 
 68.74         202 
 68.76         246 
 68.78         256 
 68.8          283 
 68.82         248 
 68.84         340 
 68.86         336 
 68.88         406 
 68.9          513 
 68.92         514 
 68.94         567 
 68.96         608 
 68.98         620 
 69            627 
 69.02         682 
 69.04         728 
 69.06         696 
 69.08         747 
 69.1          686 
 69.12         743 
 69.14         630 
 69.16         698 
 69.18         723 
 69.2          682 
 69.22         631 
 69.24         587 
 69.26         607 
 69.28         600 
 69.3          538 
 69.32         519 
 69.34         538 
 69.36         484 
 69.38         477 
 69.4          499 
 69.42         462 
 69.44         509 
 69.46         476 
 69.48         495 
 69.5          563 
 69.52         616 
 69.54         670 
 69.56         721 
 69.58         734 
 69.6          748 
 69.62         767 
 69.64         731 
 69.66         735 
 69.68         673 
 69.7          687 
 69.72         642 
 69.74         665 
 69.76         598 
 69.78         559 
 69.8          518 
 69.82         483 
 69.84         461 
 69.86         399 
 69.88         346 
 69.9          348 
 69.92         318 
 69.94         258 
 69.96         209 
 69.98         214 
 70            182 
 70.02         184 
 70.04         150 
 70.06         137 
 70.08         130 
 70.1          121 
 70.12         118 
 70.14         129 
 70.16         101 
 70.18         97 
 70.2          101 
 70.22         108 
 70.24         117 
 70.26         70 
 70.28         96 
 70.3          86 
 70.32         102 
 70.34         105 
 70.36         85 
 70.38         97 
 70.4          87 
 70.42         80 
 70.44         95 
 70.46         89 
 70.48         88 
 70.5          99 
 70.52         113 
 70.54         88 
 70.56         80 
 70.58         69 
 70.6          88 
 70.62         75 
 70.64         79 
 70.66         84 
 70.68         72 
 70.7          90 
 70.72         82 
 70.74         96 
 70.76         81 
 70.78         76 
 70.8          82 
 70.82         66 
 70.84         79 
 70.86         86 
 70.88         78 
 70.9          100 
 70.92         80 
 70.94         85 
 70.96         92 
 70.98         88 
 71            87 
 71.02         85 
 71.04         74 
 71.06         82 
 71.08         79 
 71.1          74 
 71.12         108 
 71.14         95 
 71.16         81 
 71.18         101 
 71.2          128 
 71.22         134 
 71.24         116 
 71.26         130 
 71.28         161 
 71.3          162 
 71.32         201 
 71.34         198 
 71.36         230 
 71.38         275 
 71.4          288 
 71.42         333 
 71.44         342 
 71.46         413 
 71.48         391 
 71.5          405 
 71.52         414 
 71.54         428 
 71.56         417 
 71.58         428 
 71.6          421 
 71.62         426 
 71.64         349 
 71.66         376 
 71.68         345 
 71.7          345 
 71.72         292 
 71.74         278 
 71.76         266 
 71.78         270 
 71.8          276 
 71.82         236 
 71.84         245 
 71.86         224 
 71.88         209 
 71.9          194 
 71.92         219 
 71.94         246 
 71.96         224 
 71.98         285 
 72            310 
 72.02         313 
 72.04         352 
 72.06         423 
 72.08         436 
 72.1          472 
 72.12         494 
 72.14         583 
 72.16         563 
 72.18         594 
 72.2          625 
 72.22         615 
 72.24         579 
 72.26         580 
 72.28         556 
 72.3          530 
 72.32         561 
 72.34         476 
 72.36         492 
 72.38         481 
 72.4          464 
 72.42         464 
 72.44         476 
 72.46         465 
 72.48         465 
 72.5          456 
 72.52         471 
 72.54         449 
 72.56         437 
 72.58         443 
 72.6          468 
 72.62         482 
 72.64         418 
 72.66         431 
 72.68         444 
 72.7          416 
 72.72         429 
 72.74         405 
 72.76         402 
 72.78         347 
 72.8          381 
 72.82         375 
 72.84         371 
 72.86         343 
 72.88         321 
 72.9          326 
 72.92         319 
 72.94         284 
 72.96         297 
 72.98         283 
 73            267 
 73.02         303 
 73.04         309 
 73.06         315 
 73.08         352 
 73.1          343 
 73.12         406 
 73.14         412 
 73.16         458 
 73.18         499 
 73.2          534 
 73.22         568 
 73.24         607 
 73.26         625 
 73.28         649 
 73.3          697 
 73.32         699 
 73.34         716 
 73.36         730 
 73.38         768 
 73.4          749 
 73.42         759 
 73.44         791 
 73.46         754 
 73.48         735 
 73.5          686 
 73.52         742 
 73.54         650 
 73.56         668 
 73.58         673 
 73.6          697 
 73.62         618 
 73.64         708 
 73.66         701 
 73.68         641 
 73.7          682 
 73.72         684 
 73.74         721 
 73.76         752 
 73.78         757 
 73.8          801 
 73.82         748 
 73.84         724 
 73.86         693 
 73.88         720 
 73.9          695 
 73.92         626 
 73.93999      612 
 73.96         593 
 73.98         511 
 74            463 
 74.02         462 
 74.04         457 
 74.06         418 
 74.08         390 
 74.1          395 
 74.12         358 
 74.14         294 
 74.16         301 
 74.18         253 
 74.2          270 
 74.22         212 
 74.24         201 
 74.26         180 
 74.28         204 
 74.3          188 
 74.32         136 
 74.34         155 
 74.36         146 
 74.38         106 
 74.4          133 
 74.42         88 
 74.43999      116 
 74.46         110 
 74.48         103 
 74.5          98 
 74.52         93 
 74.54         108 
 74.56         87 
 74.58         78 
 74.6          94 
 74.62         74 
 74.64         77 
 74.66         84 
 74.68         85 
 74.7          90 
 74.72         71 
 74.74         83 
 74.76         77 
 74.78         105 
 74.8          94 
 74.82         87 
 74.84         90 
 74.86         90 
 74.88         78 
 74.9          74 
 74.92         94 
 74.93999      101 
 74.96         87 
 74.98         77 
 75            99 
