LTO P2 nicht kalziniert  Original Data
 3151 
 12            181 
 12.02         188 
 12.04         184 
 12.06         174 
 12.08         166 
 12.1          180 
 12.12         173 
 12.14         164 
 12.16         194 
 12.18         178 
 12.2          191 
 12.22         199 
 12.24         214 
 12.26         184 
 12.28         186 
 12.3          172 
 12.32         192 
 12.34         189 
 12.36         181 
 12.38         192 
 12.4          166 
 12.42         174 
 12.44         203 
 12.46         179 
 12.48         216 
 12.5          233 
 12.52         199 
 12.54         209 
 12.56         177 
 12.58         184 
 12.6          165 
 12.62         201 
 12.64         199 
 12.66         204 
 12.68         193 
 12.7          202 
 12.72         191 
 12.74         160 
 12.76         214 
 12.78         177 
 12.8          182 
 12.82         190 
 12.84         186 
 12.86         206 
 12.88         213 
 12.9          194 
 12.92         194 
 12.94         186 
 12.96         191 
 12.98         180 
 13            172 
 13.02         172 
 13.04         173 
 13.06         177 
 13.08         177 
 13.1          170 
 13.12         178 
 13.14         166 
 13.16         174 
 13.18         174 
 13.2          189 
 13.22         184 
 13.24         180 
 13.26         171 
 13.28         174 
 13.3          168 
 13.32         174 
 13.34         176 
 13.36         176 
 13.38         195 
 13.4          176 
 13.42         173 
 13.44         175 
 13.46         157 
 13.48         181 
 13.5          166 
 13.52         170 
 13.54         171 
 13.56         178 
 13.58         190 
 13.6          188 
 13.62         187 
 13.64         145 
 13.66         170 
 13.68         142 
 13.7          171 
 13.72         183 
 13.74         152 
 13.76         174 
 13.78         153 
 13.8          157 
 13.82         154 
 13.84         186 
 13.86         150 
 13.88         178 
 13.9          159 
 13.92         161 
 13.94         161 
 13.96         148 
 13.98         160 
 14            175 
 14.02         177 
 14.04         167 
 14.06         166 
 14.08         134 
 14.1          158 
 14.12         156 
 14.14         155 
 14.16         122 
 14.18         187 
 14.2          156 
 14.22         136 
 14.24         167 
 14.26         126 
 14.28         133 
 14.3          164 
 14.32         147 
 14.34         152 
 14.36         139 
 14.38         164 
 14.4          152 
 14.42         147 
 14.44         149 
 14.46         151 
 14.48         163 
 14.5          143 
 14.52         146 
 14.54         136 
 14.56         120 
 14.58         146 
 14.6          150 
 14.62         157 
 14.64         132 
 14.66         158 
 14.68         140 
 14.7          143 
 14.72         143 
 14.74         152 
 14.76         127 
 14.78         139 
 14.8          139 
 14.82         125 
 14.84         131 
 14.86         114 
 14.88         119 
 14.9          126 
 14.92         153 
 14.94         132 
 14.96         129 
 14.98         152 
 15            119 
 15.02         146 
 15.04         145 
 15.06         142 
 15.08         139 
 15.1          135 
 15.12         141 
 15.14         126 
 15.16         135 
 15.18         126 
 15.2          147 
 15.22         113 
 15.24         130 
 15.26         121 
 15.28         126 
 15.3          131 
 15.32         130 
 15.34         138 
 15.36         112 
 15.38         117 
 15.4          137 
 15.42         118 
 15.44         139 
 15.46         122 
 15.48         124 
 15.5          124 
 15.52         126 
 15.54         144 
 15.56         120 
 15.58         116 
 15.6          130 
 15.62         108 
 15.64         129 
 15.66         130 
 15.68         131 
 15.7          122 
 15.72         141 
 15.74         123 
 15.76         136 
 15.78         117 
 15.8          125 
 15.82         129 
 15.84         137 
 15.86         110 
 15.88         124 
 15.9          102 
 15.92         107 
 15.94         114 
 15.96         124 
 15.98         108 
 16            122 
 16.02         101 
 16.04         119 
 16.06         101 
 16.08         114 
 16.1          120 
 16.12         118 
 16.14         115 
 16.16         120 
 16.18         110 
 16.2          116 
 16.22         112 
 16.24         130 
 16.26         132 
 16.28         110 
 16.3          101 
 16.32         114 
 16.34         108 
 16.36         129 
 16.38         106 
 16.4          114 
 16.42         115 
 16.44         118 
 16.46         129 
 16.48         134 
 16.5          97 
 16.52         103 
 16.54         111 
 16.56         122 
 16.58         105 
 16.6          134 
 16.62         116 
 16.64         85 
 16.66         118 
 16.68         122 
 16.7          111 
 16.72         124 
 16.74         122 
 16.76         104 
 16.78         94 
 16.8          107 
 16.82         102 
 16.84         85 
 16.86         114 
 16.88         102 
 16.9          129 
 16.92         115 
 16.94         109 
 16.96         107 
 16.98         104 
 17            104 
 17.02         109 
 17.04         110 
 17.06         126 
 17.08         89 
 17.1          85 
 17.12         87 
 17.14         116 
 17.16         118 
 17.18         100 
 17.2          108 
 17.22         114 
 17.24         131 
 17.26         93 
 17.28         114 
 17.3          101 
 17.32         109 
 17.34         112 
 17.36         113 
 17.38         89 
 17.4          89 
 17.42         89 
 17.44         104 
 17.46         101 
 17.48         112 
 17.5          99 
 17.52         100 
 17.54         116 
 17.56         103 
 17.58         93 
 17.6          126 
 17.62         112 
 17.64         108 
 17.66         94 
 17.68         86 
 17.7          96 
 17.72         88 
 17.74         102 
 17.76         94 
 17.78         101 
 17.8          110 
 17.82         95 
 17.84         93 
 17.86         108 
 17.88         101 
 17.9          96 
 17.92         103 
 17.94         97 
 17.96         93 
 17.98         85 
 18            108 
 18.02         96 
 18.04         87 
 18.06         78 
 18.08         95 
 18.1          100 
 18.12         105 
 18.14         89 
 18.16         112 
 18.18         98 
 18.2          93 
 18.22         90 
 18.24         87 
 18.26         86 
 18.28         84 
 18.3          99 
 18.32         104 
 18.34         100 
 18.36         97 
 18.38         81 
 18.4          81 
 18.42         101 
 18.44         87 
 18.46         73 
 18.48         101 
 18.5          99 
 18.52         106 
 18.54         102 
 18.56         80 
 18.58         95 
 18.6          110 
 18.62         106 
 18.64         100 
 18.66         84 
 18.68         87 
 18.7          94 
 18.72         94 
 18.74         95 
 18.76         90 
 18.78         95 
 18.8          99 
 18.82         98 
 18.84         107 
 18.86         107 
 18.88         92 
 18.9          100 
 18.92         112 
 18.94         93 
 18.96         102 
 18.98         98 
 19            80 
 19.02         100 
 19.04         86 
 19.06         68 
 19.08         90 
 19.1          79 
 19.12         86 
 19.14         105 
 19.16         80 
 19.18         82 
 19.2          90 
 19.22         84 
 19.24         100 
 19.26         82 
 19.28         97 
 19.3          105 
 19.32         96 
 19.34         78 
 19.36         78 
 19.38         104 
 19.4          76 
 19.42         82 
 19.44         97 
 19.46         92 
 19.48         106 
 19.5          93 
 19.52         89 
 19.54         99 
 19.56         92 
 19.58         93 
 19.6          96 
 19.62         93 
 19.64         90 
 19.66         81 
 19.68         91 
 19.7          83 
 19.72         77 
 19.74         80 
 19.76         95 
 19.78         96 
 19.8          81 
 19.82         106 
 19.84         84 
 19.86         70 
 19.88         86 
 19.9          95 
 19.92         71 
 19.94         114 
 19.96         82 
 19.98         91 
 20            98 
 20.02         73 
 20.04         81 
 20.06         86 
 20.08         82 
 20.1          82 
 20.12         89 
 20.14         87 
 20.16         83 
 20.18         97 
 20.2          77 
 20.22         74 
 20.24         76 
 20.26         93 
 20.28         92 
 20.3          87 
 20.32         84 
 20.34         89 
 20.36         69 
 20.38         68 
 20.4          88 
 20.42         100 
 20.44         106 
 20.46         70 
 20.48         88 
 20.5          83 
 20.52         70 
 20.54         84 
 20.56         87 
 20.58         94 
 20.6          104 
 20.62         87 
 20.64         85 
 20.66         104 
 20.68         94 
 20.7          78 
 20.72         77 
 20.74         81 
 20.76         93 
 20.78         85 
 20.8          94 
 20.82         90 
 20.84         82 
 20.86         88 
 20.88         98 
 20.9          94 
 20.92         98 
 20.94         113 
 20.96         113 
 20.98         110 
 21            140 
 21.02         144 
 21.04         129 
 21.06         142 
 21.08         128 
 21.1          202 
 21.12         150 
 21.14         168 
 21.16         203 
 21.18         210 
 21.2          232 
 21.22         281 
 21.24         287 
 21.26         342 
 21.28         373 
 21.3          407 
 21.32         436 
 21.34         493 
 21.36         552 
 21.38         506 
 21.4          481 
 21.42         484 
 21.44         395 
 21.46         351 
 21.48         283 
 21.5          249 
 21.52         224 
 21.54         167 
 21.56         166 
 21.58         156 
 21.6          136 
 21.62         127 
 21.64         111 
 21.66         111 
 21.68         98 
 21.7          100 
 21.72         102 
 21.74         96 
 21.76         89 
 21.78         86 
 21.8          88 
 21.82         106 
 21.84         81 
 21.86         91 
 21.88         93 
 21.9          68 
 21.92         87 
 21.94         92 
 21.96         86 
 21.98         61 
 22            64 
 22.02         62 
 22.04         80 
 22.06         82 
 22.08         93 
 22.1          85 
 22.12         72 
 22.14         66 
 22.16         103 
 22.18         71 
 22.2          78 
 22.22         75 
 22.24         79 
 22.26         77 
 22.28         75 
 22.3          70 
 22.32         78 
 22.34         69 
 22.36         87 
 22.38         62 
 22.4          89 
 22.42         81 
 22.44         85 
 22.46         78 
 22.48         85 
 22.5          72 
 22.52         84 
 22.54         56 
 22.56         74 
 22.58         62 
 22.6          87 
 22.62         81 
 22.64         90 
 22.66         62 
 22.68         78 
 22.7          78 
 22.72         76 
 22.74         75 
 22.76         79 
 22.78         74 
 22.8          60 
 22.82         69 
 22.84         73 
 22.86         72 
 22.88         98 
 22.9          80 
 22.92         66 
 22.94         67 
 22.96         95 
 22.98         85 
 23            104 
 23.02         93 
 23.04         89 
 23.06         83 
 23.08         92 
 23.1          77 
 23.12         75 
 23.14         88 
 23.16         99 
 23.18         89 
 23.2          96 
 23.22         100 
 23.24         92 
 23.26         99 
 23.28         115 
 23.3          126 
 23.32         128 
 23.34         116 
 23.36         137 
 23.38         137 
 23.4          163 
 23.42         157 
 23.44         133 
 23.46         136 
 23.48         160 
 23.5          159 
 23.52         135 
 23.54         131 
 23.56         142 
 23.58         124 
 23.6          104 
 23.62         109 
 23.64         109 
 23.66         102 
 23.68         79 
 23.7          90 
 23.72         77 
 23.74         92 
 23.76         70 
 23.78         73 
 23.8          80 
 23.82         92 
 23.84         85 
 23.86         79 
 23.88         84 
 23.9          76 
 23.92         83 
 23.94         83 
 23.96         73 
 23.98         83 
 24            76 
 24.02         86 
 24.04         73 
 24.06         81 
 24.08         65 
 24.1          93 
 24.12         82 
 24.14         90 
 24.16         71 
 24.18         79 
 24.2          86 
 24.22         92 
 24.24         76 
 24.26         60 
 24.28         79 
 24.3          82 
 24.32         77 
 24.34         61 
 24.36         79 
 24.38         72 
 24.4          92 
 24.42         91 
 24.44         88 
 24.46         86 
 24.48         88 
 24.5          74 
 24.52         108 
 24.54         75 
 24.56         83 
 24.58         71 
 24.6          94 
 24.62         77 
 24.64         80 
 24.66         92 
 24.68         59 
 24.7          79 
 24.72         82 
 24.74         100 
 24.76         99 
 24.78         83 
 24.8          96 
 24.82         94 
 24.84         111 
 24.86         89 
 24.88         106 
 24.9          103 
 24.92         114 
 24.94         95 
 24.96         118 
 24.98         104 
 25            132 
 25.02         110 
 25.04         135 
 25.06         145 
 25.08         135 
 25.1          135 
 25.12         164 
 25.14         174 
 25.16         208 
 25.18         214 
 25.2          226 
 25.22         243 
 25.24         307 
 25.26         343 
 25.28         393 
 25.3          471 
 25.32         505 
 25.34         577 
 25.36         605 
 25.38         533 
 25.4          487 
 25.42         404 
 25.44         358 
 25.46         256 
 25.48         222 
 25.5          190 
 25.52         186 
 25.54         163 
 25.56         165 
 25.58         150 
 25.6          133 
 25.62         117 
 25.64         140 
 25.66         131 
 25.68         131 
 25.7          120 
 25.72         137 
 25.74         105 
 25.76         117 
 25.78         137 
 25.8          112 
 25.82         120 
 25.84         118 
 25.86         122 
 25.88         138 
 25.9          117 
 25.92         120 
 25.94         132 
 25.96         140 
 25.98         122 
 26            136 
 26.02         121 
 26.04         148 
 26.06         134 
 26.08         142 
 26.1          131 
 26.12         144 
 26.14         141 
 26.16         125 
 26.18         132 
 26.2          143 
 26.22         151 
 26.24         152 
 26.26         122 
 26.28         125 
 26.3          154 
 26.32         151 
 26.34         139 
 26.36         149 
 26.38         156 
 26.4          147 
 26.42         155 
 26.44         166 
 26.46         168 
 26.48         167 
 26.5          186 
 26.52         187 
 26.54         181 
 26.56         212 
 26.58         214 
 26.6          216 
 26.62         193 
 26.64         213 
 26.66         197 
 26.68         204 
 26.7          202 
 26.72         202 
 26.74         227 
 26.76         242 
 26.78         260 
 26.8          275 
 26.82         240 
 26.84         278 
 26.86         308 
 26.88         314 
 26.9          332 
 26.92         316 
 26.94         375 
 26.96         387 
 26.98         408 
 27            447 
 27.02         490 
 27.04         467 
 27.06         577 
 27.08         621 
 27.1          642 
 27.12         708 
 27.14         786 
 27.16         882 
 27.18         928 
 27.2          1064 
 27.22         1202 
 27.24         1380 
 27.26         1629 
 27.28         1859 
 27.3          2051 
 27.32         2277 
 27.34         2773 
 27.36         3199 
 27.38         3789 
 27.4          4453 
 27.42         4982 
 27.44         5794 
 27.46         6331 
 27.48         6330 
 27.5          6183 
 27.52         5897 
 27.54         5277 
 27.56         4346 
 27.58         3672 
 27.6          2873 
 27.62         2334 
 27.64         1949 
 27.66         1615 
 27.68         1432 
 27.7          1216 
 27.72         1037 
 27.74         995 
 27.76         852 
 27.78         788 
 27.8          724 
 27.82         617 
 27.84         615 
 27.86         543 
 27.88         516 
 27.9          517 
 27.92         482 
 27.94         442 
 27.96         417 
 27.98         406 
 28            362 
 28.02         323 
 28.04         354 
 28.06         338 
 28.08         284 
 28.1          313 
 28.12         272 
 28.14         287 
 28.16         290 
 28.18         274 
 28.2          248 
 28.22         275 
 28.24         216 
 28.26         261 
 28.28         233 
 28.3          224 
 28.32         210 
 28.34         196 
 28.36         208 
 28.38         209 
 28.4          192 
 28.42         194 
 28.44         180 
 28.46         179 
 28.48         164 
 28.5          202 
 28.52         176 
 28.54         196 
 28.56         175 
 28.58         175 
 28.6          155 
 28.62         160 
 28.64         155 
 28.66         148 
 28.68         144 
 28.7          165 
 28.72         149 
 28.74         160 
 28.76         147 
 28.78         148 
 28.8          159 
 28.82         144 
 28.84         141 
 28.86         156 
 28.88         146 
 28.9          157 
 28.92         135 
 28.94         163 
 28.96         141 
 28.98         119 
 29            149 
 29.02         119 
 29.04         147 
 29.06         130 
 29.08         130 
 29.1          154 
 29.12         150 
 29.14         161 
 29.16         127 
 29.18         152 
 29.2          145 
 29.22         160 
 29.24         152 
 29.26         173 
 29.28         147 
 29.3          133 
 29.32         159 
 29.34         174 
 29.36         197 
 29.38         162 
 29.4          194 
 29.42         162 
 29.44         188 
 29.46         187 
 29.48         203 
 29.5          184 
 29.52         213 
 29.54         184 
 29.56         183 
 29.58         187 
 29.6          199 
 29.62         160 
 29.64         158 
 29.66         158 
 29.68         145 
 29.7          148 
 29.72         161 
 29.74         144 
 29.76         132 
 29.78         154 
 29.8          127 
 29.82         129 
 29.84         151 
 29.86         120 
 29.88         168 
 29.9          132 
 29.92         146 
 29.94         140 
 29.96         114 
 29.98         124 
 30            125 
 30.02         126 
 30.04         132 
 30.06         144 
 30.08         98 
 30.1          149 
 30.12         156 
 30.14         145 
 30.16         137 
 30.18         158 
 30.2          153 
 30.22         147 
 30.24         148 
 30.26         183 
 30.28         162 
 30.3          168 
 30.32         198 
 30.34         186 
 30.36         214 
 30.38         187 
 30.4          219 
 30.42         247 
 30.44         241 
 30.46         302 
 30.48         307 
 30.5          333 
 30.52         304 
 30.54         325 
 30.56         336 
 30.58         420 
 30.6          403 
 30.62         396 
 30.64         426 
 30.66         426 
 30.68         381 
 30.7          399 
 30.72         321 
 30.74         355 
 30.76         385 
 30.78         339 
 30.8          298 
 30.82         291 
 30.84         284 
 30.86         254 
 30.88         217 
 30.9          227 
 30.92         230 
 30.94         217 
 30.96         195 
 30.98         184 
 31            172 
 31.02         192 
 31.04         186 
 31.06         180 
 31.08         191 
 31.1          173 
 31.12         191 
 31.14         177 
 31.16         153 
 31.18         168 
 31.2          179 
 31.22         175 
 31.24         192 
 31.26         186 
 31.28         195 
 31.3          189 
 31.32         186 
 31.34         202 
 31.36         226 
 31.38         202 
 31.4          193 
 31.42         217 
 31.44         249 
 31.46         263 
 31.48         248 
 31.5          285 
 31.52         298 
 31.54         279 
 31.56         366 
 31.58         336 
 31.6          354 
 31.62         381 
 31.64         417 
 31.66         449 
 31.68         437 
 31.7          422 
 31.72         476 
 31.74         479 
 31.76         488 
 31.78         473 
 31.8          526 
 31.82         521 
 31.84         530 
 31.86         482 
 31.88         500 
 31.9          414 
 31.92         442 
 31.94         406 
 31.96         393 
 31.98         340 
 32            354 
 32.02         285 
 32.04         282 
 32.06         277 
 32.08         243 
 32.1          231 
 32.12         227 
 32.14         225 
 32.16         198 
 32.18         205 
 32.2          170 
 32.22         161 
 32.24         178 
 32.26         158 
 32.28         136 
 32.3          159 
 32.32         170 
 32.34         130 
 32.36         138 
 32.38         144 
 32.4          116 
 32.42         123 
 32.44         122 
 32.46         101 
 32.48         132 
 32.5          116 
 32.52         116 
 32.54         131 
 32.56         126 
 32.58         111 
 32.6          99 
 32.62         102 
 32.64         111 
 32.66         107 
 32.68         93 
 32.7          112 
 32.72         87 
 32.74         91 
 32.76         100 
 32.78         110 
 32.8          90 
 32.82         86 
 32.84         107 
 32.86         109 
 32.88         105 
 32.9          92 
 32.92         94 
 32.94         75 
 32.96         102 
 32.98         76 
 33            77 
 33.02         108 
 33.04         95 
 33.06         99 
 33.08         99 
 33.1          93 
 33.12         86 
 33.14         87 
 33.16         81 
 33.18         76 
 33.2          70 
 33.22         89 
 33.24         80 
 33.26         84 
 33.28         95 
 33.3          101 
 33.32         100 
 33.34         88 
 33.36         97 
 33.38         92 
 33.4          86 
 33.42         99 
 33.44         98 
 33.46         93 
 33.48         90 
 33.5          76 
 33.52         95 
 33.54         87 
 33.56         91 
 33.58         98 
 33.6          90 
 33.62         85 
 33.64         102 
 33.66         83 
 33.68         101 
 33.7          110 
 33.72         103 
 33.74         98 
 33.76         113 
 33.78         96 
 33.8          109 
 33.82         99 
 33.84         120 
 33.86         122 
 33.88         128 
 33.9          144 
 33.92         167 
 33.94         143 
 33.96         143 
 33.98         154 
 34            173 
 34.02         175 
 34.04         183 
 34.06         202 
 34.08         228 
 34.1          161 
 34.12         191 
 34.14         212 
 34.16         202 
 34.18         205 
 34.2          204 
 34.22         208 
 34.24         170 
 34.26         164 
 34.28         154 
 34.3          184 
 34.32         177 
 34.34         169 
 34.36         157 
 34.38         136 
 34.4          110 
 34.42         138 
 34.44         122 
 34.46         119 
 34.48         108 
 34.5          103 
 34.52         111 
 34.54         99 
 34.56         114 
 34.58         113 
 34.6          120 
 34.62         110 
 34.64         100 
 34.66         128 
 34.68         105 
 34.7          91 
 34.72         77 
 34.74         104 
 34.76         91 
 34.78         84 
 34.8          99 
 34.82         99 
 34.84         101 
 34.86         117 
 34.88         108 
 34.9          105 
 34.92         109 
 34.94         107 
 34.96         114 
 34.98         115 
 35            113 
 35.02         108 
 35.04         116 
 35.06         114 
 35.08         112 
 35.1          121 
 35.12         106 
 35.14         104 
 35.16         113 
 35.18         115 
 35.2          125 
 35.22         123 
 35.24         122 
 35.26         134 
 35.28         143 
 35.3          138 
 35.32         118 
 35.34         155 
 35.36         127 
 35.38         149 
 35.4          187 
 35.42         146 
 35.44         153 
 35.46         158 
 35.48         172 
 35.5          169 
 35.52         199 
 35.54         203 
 35.56         204 
 35.58         215 
 35.6          226 
 35.62         225 
 35.64         256 
 35.66         264 
 35.68         281 
 35.7          287 
 35.72         338 
 35.74         350 
 35.76         345 
 35.78         361 
 35.8          418 
 35.82         438 
 35.84         518 
 35.86         563 
 35.88         631 
 35.9          707 
 35.92         733 
 35.94         879 
 35.96         989 
 35.98         1068 
 36            1287 
 36.02         1537 
 36.04         1674 
 36.06         1904 
 36.08         2194 
 36.1          2445 
 36.12         2616 
 36.14         2548 
 36.16         2579 
 36.18         2308 
 36.2          2174 
 36.22         1958 
 36.24         1718 
 36.26         1505 
 36.28         1218 
 36.3          1011 
 36.32         901 
 36.34         743 
 36.36         686 
 36.38         588 
 36.4          498 
 36.42         522 
 36.44         479 
 36.46         420 
 36.48         404 
 36.5          368 
 36.52         356 
 36.54         318 
 36.56         281 
 36.58         280 
 36.6          291 
 36.62         234 
 36.64         255 
 36.66         252 
 36.68         237 
 36.7          232 
 36.72         254 
 36.74         219 
 36.76         227 
 36.78         231 
 36.8          224 
 36.82         205 
 36.84         212 
 36.86         219 
 36.88         230 
 36.9          239 
 36.92         250 
 36.94         246 
 36.96         237 
 36.98         250 
 37            241 
 37.02         277 
 37.04         261 
 37.06         227 
 37.08         218 
 37.1          204 
 37.12         219 
 37.14         181 
 37.16         173 
 37.18         195 
 37.2          168 
 37.22         149 
 37.24         138 
 37.26         139 
 37.28         119 
 37.3          124 
 37.32         124 
 37.34         109 
 37.36         121 
 37.38         112 
 37.4          105 
 37.42         106 
 37.44         98 
 37.46         109 
 37.48         96 
 37.5          107 
 37.52         100 
 37.54         77 
 37.56         85 
 37.58         84 
 37.6          106 
 37.62         110 
 37.64         100 
 37.66         85 
 37.68         118 
 37.7          85 
 37.72         92 
 37.74         126 
 37.76         133 
 37.78         138 
 37.8          149 
 37.82         160 
 37.84         162 
 37.86         166 
 37.88         151 
 37.9          147 
 37.92         142 
 37.94         119 
 37.96         127 
 37.98         108 
 38            102 
 38.02         97 
 38.04         73 
 38.06         73 
 38.08         68 
 38.1          83 
 38.12         63 
 38.14         71 
 38.16         89 
 38.18         64 
 38.2          60 
 38.22         84 
 38.24         72 
 38.26         62 
 38.28         81 
 38.3          94 
 38.32         85 
 38.34         82 
 38.36         76 
 38.38         73 
 38.4          69 
 38.42         64 
 38.44         88 
 38.46         62 
 38.48         87 
 38.5          76 
 38.52         89 
 38.54         71 
 38.56         99 
 38.58         101 
 38.6          97 
 38.62         94 
 38.64         110 
 38.66         101 
 38.68         100 
 38.7          99 
 38.72         95 
 38.74         102 
 38.76         104 
 38.78         95 
 38.8          117 
 38.82         118 
 38.84         107 
 38.86         100 
 38.88         139 
 38.9          120 
 38.92         139 
 38.94         117 
 38.96         124 
 38.98         142 
 39            136 
 39.02         149 
 39.04         167 
 39.06         153 
 39.08         192 
 39.1          180 
 39.12         242 
 39.14         247 
 39.16         256 
 39.18         301 
 39.2          333 
 39.22         323 
 39.24         338 
 39.26         350 
 39.28         357 
 39.3          337 
 39.32         318 
 39.34         286 
 39.36         287 
 39.38         243 
 39.4          205 
 39.42         180 
 39.44         191 
 39.46         171 
 39.48         153 
 39.5          159 
 39.52         157 
 39.54         168 
 39.56         147 
 39.58         162 
 39.6          180 
 39.62         174 
 39.64         165 
 39.66         143 
 39.68         141 
 39.7          154 
 39.72         139 
 39.74         158 
 39.76         119 
 39.78         148 
 39.8          140 
 39.82         126 
 39.84         138 
 39.86         131 
 39.88         130 
 39.9          119 
 39.92         128 
 39.94         144 
 39.96         113 
 39.98         145 
 40            142 
 40.02         126 
 40.04         128 
 40.06         116 
 40.08         129 
 40.1          109 
 40.12         95 
 40.14         87 
 40.16         75 
 40.18         92 
 40.2          85 
 40.22         92 
 40.24         68 
 40.26         82 
 40.28         76 
 40.3          81 
 40.32         57 
 40.34         62 
 40.36         55 
 40.38         70 
 40.4          65 
 40.42         70 
 40.44         82 
 40.46         84 
 40.48         70 
 40.5          73 
 40.52         73 
 40.54         71 
 40.56         68 
 40.58         77 
 40.6          58 
 40.62         78 
 40.64         92 
 40.66         83 
 40.68         104 
 40.7          99 
 40.72         97 
 40.74         108 
 40.76         104 
 40.78         115 
 40.8          98 
 40.82         110 
 40.84         128 
 40.86         123 
 40.88         153 
 40.9          154 
 40.92         181 
 40.94         172 
 40.96         217 
 40.98         199 
 41            230 
 41.02         236 
 41.04         277 
 41.06         301 
 41.08         367 
 41.1          399 
 41.12         448 
 41.14         524 
 41.16         607 
 41.18         661 
 41.2          796 
 41.22         916 
 41.24         1048 
 41.26         1134 
 41.28         1283 
 41.3          1235 
 41.32         1226 
 41.34         1172 
 41.36         1151 
 41.38         977 
 41.4          963 
 41.42         856 
 41.44         696 
 41.46         647 
 41.48         490 
 41.5          438 
 41.52         411 
 41.54         324 
 41.56         330 
 41.58         280 
 41.6          283 
 41.62         239 
 41.64         218 
 41.66         196 
 41.68         211 
 41.7          198 
 41.72         193 
 41.74         175 
 41.76         171 
 41.78         150 
 41.8          143 
 41.82         149 
 41.84         131 
 41.86         145 
 41.88         130 
 41.9          104 
 41.92         118 
 41.94         98 
 41.96         105 
 41.98         107 
 42            113 
 42.02         101 
 42.04         92 
 42.06         91 
 42.08         99 
 42.1          104 
 42.12         93 
 42.14         84 
 42.16         89 
 42.18         80 
 42.2          81 
 42.22         70 
 42.24         75 
 42.26         83 
 42.28         86 
 42.3          95 
 42.32         79 
 42.34         72 
 42.36         84 
 42.38         57 
 42.4          94 
 42.42         74 
 42.44         79 
 42.46         74 
 42.48         91 
 42.5          75 
 42.52         75 
 42.54         83 
 42.56         81 
 42.58         72 
 42.6          77 
 42.62         81 
 42.64         98 
 42.66         68 
 42.68         67 
 42.7          82 
 42.72         77 
 42.74         83 
 42.76         85 
 42.78         70 
 42.8          84 
 42.82         68 
 42.84         71 
 42.86         69 
 42.88         71 
 42.9          84 
 42.92         80 
 42.94         68 
 42.96         74 
 42.98         59 
 43            77 
 43.02         80 
 43.04         82 
 43.06         71 
 43.08         78 
 43.1          77 
 43.12         76 
 43.14         74 
 43.16         71 
 43.18         92 
 43.2          78 
 43.22         76 
 43.24         77 
 43.26         79 
 43.28         83 
 43.3          66 
 43.32         94 
 43.34         84 
 43.36         108 
 43.38         90 
 43.4          81 
 43.42         113 
 43.44         96 
 43.46         130 
 43.48         126 
 43.5          129 
 43.52         113 
 43.54         114 
 43.56         122 
 43.58         131 
 43.6          122 
 43.62         122 
 43.64         145 
 43.66         130 
 43.68         105 
 43.7          126 
 43.72         122 
 43.74         138 
 43.76         108 
 43.78         138 
 43.8          129 
 43.82         149 
 43.84         153 
 43.86         154 
 43.88         196 
 43.9          200 
 43.92         202 
 43.94         227 
 43.96         224 
 43.98         246 
 44            318 
 44.02         333 
 44.04         367 
 44.06         369 
 44.08         408 
 44.1          459 
 44.12         462 
 44.14         394 
 44.16         362 
 44.18         306 
 44.2          309 
 44.22         314 
 44.24         269 
 44.26         211 
 44.28         175 
 44.3          182 
 44.32         172 
 44.34         127 
 44.36         155 
 44.38         118 
 44.4          99 
 44.42         103 
 44.44         92 
 44.46         93 
 44.48         113 
 44.5          85 
 44.52         80 
 44.54         75 
 44.56         78 
 44.58         71 
 44.6          77 
 44.62         65 
 44.64         66 
 44.66         71 
 44.68         79 
 44.7          56 
 44.72         60 
 44.74         57 
 44.76         53 
 44.78         59 
 44.8          57 
 44.82         54 
 44.84         60 
 44.86         52 
 44.88         59 
 44.9          64 
 44.92         49 
 44.94         43 
 44.96         45 
 44.98         54 
 45            59 
 45.02         54 
 45.04         50 
 45.06         56 
 45.08         63 
 45.1          53 
 45.12         47 
 45.14         44 
 45.16         54 
 45.18         49 
 45.2          64 
 45.22         38 
 45.24         43 
 45.26         42 
 45.28         44 
 45.3          42 
 45.32         45 
 45.34         52 
 45.36         49 
 45.38         51 
 45.4          39 
 45.42         47 
 45.44         26 
 45.46         47 
 45.48         45 
 45.5          43 
 45.52         33 
 45.54         37 
 45.56         34 
 45.58         39 
 45.6          47 
 45.62         43 
 45.64         47 
 45.66         57 
 45.68         39 
 45.7          39 
 45.72         42 
 45.74         50 
 45.76         34 
 45.78         41 
 45.8          38 
 45.82         33 
 45.84         34 
 45.86         43 
 45.88         44 
 45.9          41 
 45.92         39 
 45.94         36 
 45.96         37 
 45.98         34 
 46            28 
 46.02         42 
 46.04         41 
 46.06         40 
 46.08         46 
 46.1          38 
 46.12         38 
 46.14         42 
 46.16         49 
 46.18         39 
 46.2          33 
 46.22         39 
 46.24         31 
 46.26         44 
 46.28         44 
 46.3          29 
 46.32         34 
 46.34         42 
 46.36         51 
 46.38         43 
 46.4          33 
 46.42         44 
 46.44         22 
 46.46         35 
 46.48         32 
 46.5          49 
 46.52         36 
 46.54         44 
 46.56         47 
 46.58         40 
 46.6          40 
 46.62         45 
 46.64         26 
 46.66         42 
 46.68         42 
 46.7          47 
 46.72         41 
 46.74         38 
 46.76         39 
 46.78         33 
 46.8          46 
 46.82         43 
 46.84         39 
 46.86         44 
 46.88         33 
 46.9          30 
 46.92         41 
 46.94         47 
 46.96         47 
 46.98         41 
 47            41 
 47.02         31 
 47.04         35 
 47.06         40 
 47.08         39 
 47.1          46 
 47.12         41 
 47.14         33 
 47.16         27 
 47.18         45 
 47.2          36 
 47.22         48 
 47.24         38 
 47.26         43 
 47.28         41 
 47.3          34 
 47.32         32 
 47.34         37 
 47.36         47 
 47.38         43 
 47.4          40 
 47.42         42 
 47.44         38 
 47.46         42 
 47.48         60 
 47.5          44 
 47.52         45 
 47.54         44 
 47.56         47 
 47.58         41 
 47.6          50 
 47.62         43 
 47.64         48 
 47.66         53 
 47.68         44 
 47.7          44 
 47.72         47 
 47.74         53 
 47.76         47 
 47.78         53 
 47.8          38 
 47.82         62 
 47.84         52 
 47.86         50 
 47.88         60 
 47.9          61 
 47.92         61 
 47.94         68 
 47.96         91 
 47.98         90 
 48            107 
 48.02         119 
 48.04         158 
 48.06         147 
 48.08         176 
 48.1          160 
 48.12         148 
 48.14         145 
 48.16         136 
 48.18         131 
 48.2          116 
 48.22         116 
 48.24         101 
 48.26         88 
 48.28         97 
 48.3          89 
 48.32         67 
 48.34         72 
 48.36         75 
 48.38         68 
 48.4          59 
 48.42         56 
 48.44         60 
 48.46         73 
 48.48         78 
 48.5          65 
 48.52         73 
 48.54         73 
 48.56         78 
 48.58         70 
 48.6          76 
 48.62         82 
 48.64         90 
 48.66         84 
 48.68         72 
 48.7          101 
 48.72         76 
 48.74         75 
 48.76         83 
 48.78         98 
 48.8          89 
 48.82         82 
 48.84         90 
 48.86         102 
 48.88         81 
 48.9          93 
 48.92         94 
 48.94         75 
 48.96         86 
 48.98         77 
 49            76 
 49.02         65 
 49.04         75 
 49.06         84 
 49.08         60 
 49.1          48 
 49.12         71 
 49.14         61 
 49.16         54 
 49.18         63 
 49.2          59 
 49.22         55 
 49.24         64 
 49.26         57 
 49.28         52 
 49.3          55 
 49.32         62 
 49.34         51 
 49.36         57 
 49.38         55 
 49.4          55 
 49.42         66 
 49.44         63 
 49.46         50 
 49.48         44 
 49.5          52 
 49.52         62 
 49.54         53 
 49.56         45 
 49.58         55 
 49.6          47 
 49.62         45 
 49.64         58 
 49.66         56 
 49.68         41 
 49.7          45 
 49.72         58 
 49.74         44 
 49.76         52 
 49.78         48 
 49.8          52 
 49.82         58 
 49.84         59 
 49.86         47 
 49.88         56 
 49.9          39 
 49.92         55 
 49.94         62 
 49.96         40 
 49.98         54 
 50            53 
 50.02         47 
 50.04         33 
 50.06         49 
 50.08         43 
 50.1          53 
 50.12         56 
 50.14         44 
 50.16         52 
 50.18         47 
 50.2          47 
 50.22         57 
 50.24         63 
 50.26         61 
 50.28         60 
 50.3          52 
 50.32         59 
 50.34         68 
 50.36         61 
 50.38         47 
 50.4          61 
 50.42         67 
 50.44         54 
 50.46         56 
 50.48         48 
 50.5          55 
 50.52         54 
 50.54         63 
 50.56         54 
 50.58         60 
 50.6          51 
 50.62         52 
 50.64         48 
 50.66         58 
 50.68         69 
 50.7          59 
 50.72         41 
 50.74         46 
 50.76         51 
 50.78         50 
 50.8          46 
 50.82         48 
 50.84         37 
 50.86         41 
 50.88         40 
 50.9          42 
 50.92         45 
 50.94         50 
 50.96         33 
 50.98         45 
 51            52 
 51.02         50 
 51.04         45 
 51.06         42 
 51.08         46 
 51.1          39 
 51.12         50 
 51.14         38 
 51.16         49 
 51.18         55 
 51.2          47 
 51.22         52 
 51.24         36 
 51.26         53 
 51.28         50 
 51.3          49 
 51.32         43 
 51.34         37 
 51.36         57 
 51.38         39 
 51.4          51 
 51.42         55 
 51.44         56 
 51.46         49 
 51.48         44 
 51.5          45 
 51.52         41 
 51.54         36 
 51.56         44 
 51.58         45 
 51.6          50 
 51.62         47 
 51.64         51 
 51.66         33 
 51.68         50 
 51.7          51 
 51.72         52 
 51.74         51 
 51.76         36 
 51.78         47 
 51.8          42 
 51.82         52 
 51.84         41 
 51.86         50 
 51.88         61 
 51.9          60 
 51.92         38 
 51.94         54 
 51.96         44 
 51.98         51 
 52            59 
 52.02         55 
 52.04         41 
 52.06         56 
 52.08         53 
 52.1          56 
 52.12         41 
 52.14         60 
 52.16         60 
 52.18         57 
 52.2          56 
 52.22         51 
 52.24         39 
 52.26         52 
 52.28         46 
 52.3          49 
 52.32         49 
 52.34         59 
 52.36         59 
 52.38         61 
 52.4          59 
 52.42         43 
 52.44         59 
 52.46         51 
 52.48         52 
 52.5          50 
 52.52         57 
 52.54         57 
 52.56         56 
 52.58         60 
 52.6          68 
 52.62         47 
 52.64         62 
 52.66         66 
 52.68         54 
 52.7          55 
 52.72         63 
 52.74         68 
 52.76         66 
 52.78         61 
 52.8          66 
 52.82         52 
 52.84         75 
 52.86         83 
 52.88         66 
 52.9          77 
 52.92         67 
 52.94         59 
 52.96         67 
 52.98         67 
 53            76 
 53.02         89 
 53.04         86 
 53.06         64 
 53.08         83 
 53.1          69 
 53.12         78 
 53.14         88 
 53.16         92 
 53.18         94 
 53.2          93 
 53.22         73 
 53.24         105 
 53.26         95 
 53.28         106 
 53.3          117 
 53.32         97 
 53.34         119 
 53.36         104 
 53.38         137 
 53.4          96 
 53.42         134 
 53.44         136 
 53.46         126 
 53.48         140 
 53.5          126 
 53.52         138 
 53.54         169 
 53.56         158 
 53.58         160 
 53.6          133 
 53.62         190 
 53.64         185 
 53.66         198 
 53.68         206 
 53.7          215 
 53.72         253 
 53.74         232 
 53.76         248 
 53.78         260 
 53.8          242 
 53.82         291 
 53.84         301 
 53.86         365 
 53.88         361 
 53.9          373 
 53.92         391 
 53.94         427 
 53.96         511 
 53.98         542 
 54            530 
 54.02         545 
 54.04         578 
 54.06         664 
 54.08         731 
 54.1          772 
 54.12         751 
 54.14         847 
 54.16         858 
 54.18         971 
 54.2          1061 
 54.22         1158 
 54.24         1316 
 54.26         1449 
 54.28         1685 
 54.3          1901 
 54.32         2257 
 54.34         2526 
 54.36         2703 
 54.38         2827 
 54.4          2770 
 54.42         2548 
 54.44         2327 
 54.46         2125 
 54.48         2073 
 54.5          2021 
 54.52         1937 
 54.54         1835 
 54.56         1534 
 54.58         1391 
 54.6          1165 
 54.62         1061 
 54.64         961 
 54.66         867 
 54.68         779 
 54.7          788 
 54.72         668 
 54.74         640 
 54.76         587 
 54.78         549 
 54.8          514 
 54.82         511 
 54.84         476 
 54.86         418 
 54.88         434 
 54.9          355 
 54.92         346 
 54.94         351 
 54.96         333 
 54.98         326 
 55            302 
 55.02         336 
 55.04         326 
 55.06         313 
 55.08         324 
 55.1          329 
 55.12         320 
 55.14         333 
 55.16         282 
 55.18         250 
 55.2          263 
 55.22         251 
 55.24         252 
 55.26         240 
 55.28         232 
 55.3          223 
 55.32         216 
 55.34         189 
 55.36         191 
 55.38         176 
 55.4          182 
 55.42         177 
 55.44         150 
 55.46         152 
 55.48         123 
 55.5          147 
 55.52         161 
 55.54         120 
 55.56         142 
 55.58         128 
 55.6          147 
 55.62         143 
 55.64         155 
 55.66         131 
 55.68         139 
 55.7          162 
 55.72         126 
 55.74         147 
 55.76         139 
 55.78         113 
 55.8          133 
 55.82         116 
 55.84         121 
 55.86         146 
 55.88         148 
 55.9          136 
 55.92         129 
 55.94         131 
 55.96         148 
 55.98         146 
 56            112 
 56.02         171 
 56.04         139 
 56.06         137 
 56.08         145 
 56.1          167 
 56.12         149 
 56.14         146 
 56.16         170 
 56.18         142 
 56.2          179 
 56.22         199 
 56.24         200 
 56.26         203 
 56.28         183 
 56.3          187 
 56.32         225 
 56.34         236 
 56.36         227 
 56.38         240 
 56.4          280 
 56.42         276 
 56.44         306 
 56.46         315 
 56.48         312 
 56.5          364 
 56.52         405 
 56.54         440 
 56.56         487 
 56.58         566 
 56.6          611 
 56.62         775 
 56.64         877 
 56.66         905 
 56.68         932 
 56.7          872 
 56.72         856 
 56.74         773 
 56.76         730 
 56.78         710 
 56.8          685 
 56.82         703 
 56.84         600 
 56.86         607 
 56.88         503 
 56.9          443 
 56.92         358 
 56.94         310 
 56.96         306 
 56.98         279 
 57            240 
 57.02         221 
 57.04         251 
 57.06         174 
 57.08         198 
 57.1          161 
 57.12         168 
 57.14         165 
 57.16         156 
 57.18         148 
 57.2          148 
 57.22         137 
 57.24         126 
 57.26         114 
 57.28         107 
 57.3          101 
 57.32         109 
 57.34         116 
 57.36         93 
 57.38         111 
 57.4          89 
 57.42         99 
 57.44         80 
 57.46         96 
 57.48         80 
 57.5          79 
 57.52         80 
 57.54         76 
 57.56         85 
 57.58         83 
 57.6          81 
 57.62         95 
 57.64         76 
 57.66         90 
 57.68         88 
 57.7          99 
 57.72         99 
 57.74         91 
 57.76         83 
 57.78         105 
 57.8          80 
 57.82         96 
 57.84         75 
 57.86         79 
 57.88         88 
 57.9          92 
 57.92         98 
 57.94         96 
 57.96         79 
 57.98         93 
 58            84 
 58.02         81 
 58.04         66 
 58.06         88 
 58.08         83 
 58.1          79 
 58.12         72 
 58.14         84 
 58.16         93 
 58.18         77 
 58.2          75 
 58.22         67 
 58.24         80 
 58.26         72 
 58.28         64 
 58.3          85 
 58.32         82 
 58.34         80 
 58.36         70 
 58.38         70 
 58.4          80 
 58.42         75 
 58.44         84 
 58.46         77 
 58.48         86 
 58.5          77 
 58.52         81 
 58.54         79 
 58.56         74 
 58.58         70 
 58.6          63 
 58.62         78 
 58.64         77 
 58.66         76 
 58.68         86 
 58.7          75 
 58.72         73 
 58.74         69 
 58.76         73 
 58.78         69 
 58.8          71 
 58.82         82 
 58.84         81 
 58.86         60 
 58.88         98 
 58.9          82 
 58.92         94 
 58.94         72 
 58.96         72 
 58.98         88 
 59            71 
 59.02         68 
 59.04         89 
 59.06         75 
 59.08         76 
 59.1          76 
 59.12         96 
 59.14         76 
 59.16         86 
 59.18         79 
 59.2          89 
 59.22         69 
 59.24         71 
 59.26         75 
 59.28         62 
 59.3          69 
 59.32         71 
 59.34         78 
 59.36         68 
 59.38         83 
 59.4          62 
 59.42         68 
 59.44         73 
 59.46         61 
 59.48         63 
 59.5          73 
 59.52         85 
 59.54         62 
 59.56         62 
 59.58         80 
 59.6          98 
 59.62         80 
 59.64         75 
 59.66         87 
 59.68         73 
 59.7          99 
 59.72         86 
 59.74         95 
 59.76         99 
 59.78         78 
 59.8          94 
 59.82         79 
 59.84         74 
 59.86         100 
 59.88         93 
 59.9          78 
 59.92         87 
 59.94         77 
 59.96         59 
 59.98         76 
 60            83 
 60.02         64 
 60.04         79 
 60.06         67 
 60.08         66 
 60.1          55 
 60.12         59 
 60.14         64 
 60.16         66 
 60.18         55 
 60.2          47 
 60.22         64 
 60.24         66 
 60.26         61 
 60.28         53 
 60.3          51 
 60.32         52 
 60.34         45 
 60.36         60 
 60.38         48 
 60.4          66 
 60.42         40 
 60.44         52 
 60.46         56 
 60.48         47 
 60.5          53 
 60.52         37 
 60.54         57 
 60.56         52 
 60.58         33 
 60.6          61 
 60.62         47 
 60.64         64 
 60.66         59 
 60.68         45 
 60.7          55 
 60.72         60 
 60.74         52 
 60.76         43 
 60.78         47 
 60.8          50 
 60.82         52 
 60.84         59 
 60.86         52 
 60.88         53 
 60.9          50 
 60.92         51 
 60.94         57 
 60.96         58 
 60.98         53 
 61            56 
 61.02         57 
 61.04         56 
 61.06         58 
 61.08         57 
 61.1          74 
 61.12         58 
 61.14         71 
 61.16         49 
 61.18         54 
 61.2          61 
 61.22         61 
 61.24         62 
 61.26         64 
 61.28         68 
 61.3          65 
 61.32         80 
 61.34         53 
 61.36         56 
 61.38         56 
 61.4          60 
 61.42         82 
 61.44         76 
 61.46         68 
 61.48         84 
 61.5          69 
 61.52         87 
 61.54         58 
 61.56         75 
 61.58         70 
 61.6          60 
 61.62         77 
 61.64         63 
 61.66         76 
 61.68         78 
 61.7          59 
 61.72         63 
 61.74         57 
 61.76         71 
 61.78         78 
 61.8          71 
 61.82         59 
 61.84         73 
 61.86         78 
 61.88         62 
 61.9          65 
 61.92         61 
 61.94         64 
 61.96         61 
 61.98         54 
 62            69 
 62.02         48 
 62.04         67 
 62.06         66 
 62.08         67 
 62.1          69 
 62.12         89 
 62.14         85 
 62.16         85 
 62.18         84 
 62.2          107 
 62.22         74 
 62.24         91 
 62.26         77 
 62.28         98 
 62.3          77 
 62.32         92 
 62.34         86 
 62.36         94 
 62.38         108 
 62.4          106 
 62.42         93 
 62.44         110 
 62.46         97 
 62.48         109 
 62.5          126 
 62.52         130 
 62.54         125 
 62.56         142 
 62.58         143 
 62.6          151 
 62.62         175 
 62.64         200 
 62.66         219 
 62.68         227 
 62.7          250 
 62.72         291 
 62.74         342 
 62.76         369 
 62.78         406 
 62.8          429 
 62.82         416 
 62.84         386 
 62.86         381 
 62.88         343 
 62.9          333 
 62.92         345 
 62.94         340 
 62.96         355 
 62.98         340 
 63            301 
 63.02         275 
 63.04         230 
 63.06         213 
 63.08         200 
 63.1          168 
 63.12         185 
 63.14         154 
 63.16         178 
 63.18         144 
 63.2          154 
 63.22         130 
 63.24         130 
 63.26         140 
 63.28         136 
 63.3          111 
 63.32         119 
 63.34         132 
 63.36         128 
 63.38         118 
 63.4          113 
 63.42         116 
 63.44         126 
 63.46         108 
 63.48         144 
 63.5          126 
 63.52         113 
 63.54         120 
 63.56         122 
 63.58         142 
 63.6          132 
 63.62         113 
 63.64         130 
 63.66         118 
 63.68         145 
 63.7          161 
 63.72         139 
 63.74         145 
 63.76         141 
 63.78         135 
 63.8          142 
 63.82         167 
 63.84         161 
 63.86         170 
 63.88         179 
 63.9          170 
 63.92         176 
 63.94         193 
 63.96         229 
 63.98         234 
 64            238 
 64.02         273 
 64.04         340 
 64.06         346 
 64.08         402 
 64.1          384 
 64.12         395 
 64.14         343 
 64.16         341 
 64.18         284 
 64.2          260 
 64.22         299 
 64.24         279 
 64.26         317 
 64.28         295 
 64.3          280 
 64.32         234 
 64.34         226 
 64.36         194 
 64.38         184 
 64.4          156 
 64.42         163 
 64.44         159 
 64.46         148 
 64.48         137 
 64.5          149 
 64.52         137 
 64.54         116 
 64.56         121 
 64.58         139 
 64.6          129 
 64.62         133 
 64.64         120 
 64.66         124 
 64.68         95 
 64.7          106 
 64.72         90 
 64.74         88 
 64.76         99 
 64.78         87 
 64.8          100 
 64.82         101 
 64.84         84 
 64.86         92 
 64.88         86 
 64.9          89 
 64.92         90 
 64.94         85 
 64.96         86 
 64.98         87 
 65            72 
 65.02         72 
 65.04         84 
 65.06         77 
 65.08         75 
 65.1          80 
 65.12         91 
 65.14         75 
 65.16         85 
 65.18         83 
 65.2          71 
 65.22         73 
 65.24         78 
 65.26         90 
 65.28         64 
 65.3          74 
 65.32         72 
 65.34         74 
 65.36         81 
 65.38         70 
 65.4          85 
 65.42         88 
 65.44         102 
 65.46         81 
 65.48         87 
 65.5          107 
 65.52         95 
 65.54         110 
 65.56         108 
 65.58         106 
 65.6          81 
 65.62         93 
 65.64         103 
 65.66         72 
 65.68         113 
 65.7          91 
 65.72         86 
 65.74         84 
 65.76         80 
 65.78         84 
 65.8          69 
 65.82         81 
 65.84         88 
 65.86         54 
 65.88         65 
 65.9          68 
 65.92         61 
 65.94         81 
 65.96         67 
 65.98         79 
 66            68 
 66.02         67 
 66.04         71 
 66.06         51 
 66.08         69 
 66.1          70 
 66.12         61 
 66.14         76 
 66.16         53 
 66.18         74 
 66.2          74 
 66.22         71 
 66.24         48 
 66.26         66 
 66.28         64 
 66.3          55 
 66.32         55 
 66.34         59 
 66.36         57 
 66.38         64 
 66.4          55 
 66.42         68 
 66.44         72 
 66.46         67 
 66.48         57 
 66.5          54 
 66.52         54 
 66.54         67 
 66.56         56 
 66.58         59 
 66.6          61 
 66.62         64 
 66.64         63 
 66.66         53 
 66.68         63 
 66.7          75 
 66.72         63 
 66.74         65 
 66.76         56 
 66.78         66 
 66.8          52 
 66.82         64 
 66.84         70 
 66.86         58 
 66.88         58 
 66.9          56 
 66.92         70 
 66.94         54 
 66.96         64 
 66.98         64 
 67            59 
 67.02         72 
 67.04         79 
 67.06         73 
 67.08         62 
 67.1          74 
 67.12         73 
 67.14         66 
 67.16         72 
 67.18         75 
 67.2          78 
 67.22         76 
 67.24         74 
 67.26         70 
 67.28         59 
 67.3          66 
 67.32         56 
 67.34         63 
 67.36         63 
 67.38         74 
 67.4          68 
 67.42         64 
 67.44         73 
 67.46         69 
 67.48         71 
 67.5          75 
 67.52         72 
 67.54         73 
 67.56         88 
 67.58         75 
 67.6          67 
 67.62         72 
 67.64         76 
 67.66         83 
 67.68         77 
 67.7          81 
 67.72         91 
 67.74         112 
 67.76         91 
 67.78         94 
 67.8          75 
 67.82         86 
 67.84         83 
 67.86         94 
 67.88         105 
 67.9          72 
 67.92         98 
 67.94         85 
 67.96         103 
 67.98         85 
 68            103 
 68.02         98 
 68.04         110 
 68.06         112 
 68.08         109 
 68.1          109 
 68.12         110 
 68.14         131 
 68.16         103 
 68.18         108 
 68.2          115 
 68.22         127 
 68.24         103 
 68.26         115 
 68.28         129 
 68.3          129 
 68.32         155 
 68.34         142 
 68.36         146 
 68.38         146 
 68.4          163 
 68.42         138 
 68.44         156 
 68.46         151 
 68.48         182 
 68.5          178 
 68.52         170 
 68.54         194 
 68.56         207 
 68.58         195 
 68.6          181 
 68.62         203 
 68.64         243 
 68.66         192 
 68.68         202 
 68.7          265 
 68.72         289 
 68.74         255 
 68.76         279 
 68.78         252 
 68.8          296 
 68.82         310 
 68.84         321 
 68.86         353 
 68.88         364 
 68.9          370 
 68.92         410 
 68.94         443 
 68.96         480 
 68.98         586 
 69            644 
 69.02         762 
 69.04         822 
 69.06         818 
 69.08         856 
 69.1          768 
 69.12         670 
 69.14         573 
 69.16         591 
 69.18         587 
 69.2          578 
 69.22         632 
 69.24         611 
 69.26         580 
 69.28         493 
 69.3          529 
 69.32         451 
 69.34         362 
 69.36         378 
 69.38         364 
 69.4          328 
 69.42         319 
 69.44         315 
 69.46         298 
 69.48         280 
 69.5          326 
 69.52         296 
 69.54         292 
 69.56         275 
 69.58         286 
 69.6          270 
 69.62         264 
 69.64         289 
 69.66         291 
 69.68         263 
 69.7          292 
 69.72         336 
 69.74         319 
 69.76         367 
 69.78         381 
 69.8          429 
 69.82         468 
 69.84         490 
 69.86         510 
 69.88         492 
 69.9          428 
 69.92         432 
 69.94         361 
 69.96         359 
 69.98         368 
 70            386 
 70.02         348 
 70.04         339 
 70.06         303 
 70.08         286 
 70.1          268 
 70.12         241 
 70.14         212 
 70.16         192 
 70.18         193 
 70.2          171 
 70.22         169 
 70.24         170 
 70.26         121 
 70.28         147 
 70.3          160 
 70.32         154 
 70.34         145 
 70.36         142 
 70.38         135 
 70.4          107 
 70.42         131 
 70.44         125 
 70.46         95 
 70.48         107 
 70.5          102 
 70.52         111 
 70.54         104 
 70.56         103 
 70.58         88 
 70.6          103 
 70.62         74 
 70.64         84 
 70.66         72 
 70.68         77 
 70.7          85 
 70.72         83 
 70.74         67 
 70.76         68 
 70.78         52 
 70.8          61 
 70.82         80 
 70.84         65 
 70.86         66 
 70.88         67 
 70.9          57 
 70.92         69 
 70.94         56 
 70.96         63 
 70.98         69 
 71            52 
 71.02         47 
 71.04         48 
 71.06         55 
 71.08         74 
 71.1          59 
 71.12         52 
 71.14         53 
 71.16         50 
 71.18         48 
 71.2          56 
 71.22         50 
 71.24         48 
 71.26         74 
 71.28         64 
 71.3          35 
 71.32         66 
 71.34         40 
 71.36         45 
 71.38         50 
 71.4          39 
 71.42         41 
 71.44         45 
 71.46         50 
 71.48         52 
 71.5          33 
 71.52         45 
 71.54         53 
 71.56         47 
 71.58         34 
 71.6          38 
 71.62         37 
 71.64         60 
 71.66         36 
 71.68         56 
 71.7          48 
 71.72         38 
 71.74         56 
 71.76         46 
 71.78         48 
 71.8          57 
 71.82         46 
 71.84         46 
 71.86         46 
 71.88         45 
 71.9          51 
 71.92         48 
 71.94         58 
 71.96         55 
 71.98         51 
 72            50 
 72.02         41 
 72.04         47 
 72.06         44 
 72.08         41 
 72.1          43 
 72.12         43 
 72.14         51 
 72.16         43 
 72.18         49 
 72.2          53 
 72.22         48 
 72.24         44 
 72.26         51 
 72.28         66 
 72.3          42 
 72.32         53 
 72.34         67 
 72.36         69 
 72.38         63 
 72.4          56 
 72.42         84 
 72.44         56 
 72.46         71 
 72.48         79 
 72.5          90 
 72.52         85 
 72.54         75 
 72.56         75 
 72.58         73 
 72.6          58 
 72.62         63 
 72.64         61 
 72.66         58 
 72.68         69 
 72.7          64 
 72.72         52 
 72.74         55 
 72.76         60 
 72.78         60 
 72.8          39 
 72.82         52 
 72.84         58 
 72.86         46 
 72.88         47 
 72.9          46 
 72.92         51 
 72.94         30 
 72.96         36 
 72.98         36 
 73            55 
 73.02         40 
 73.04         55 
 73.06         38 
 73.08         33 
 73.1          33 
 73.12         44 
 73.14         55 
 73.16         48 
 73.18         46 
 73.2          42 
 73.22         35 
 73.24         40 
 73.26         46 
 73.28         43 
 73.3          39 
 73.32         57 
 73.34         44 
 73.36         35 
 73.38         37 
 73.4          44 
 73.42         42 
 73.44         32 
 73.46         46 
 73.48         49 
 73.5          43 
 73.52         42 
 73.54         35 
 73.56         46 
 73.58         46 
 73.6          50 
 73.62         37 
 73.64         53 
 73.66         42 
 73.68         41 
 73.7          42 
 73.72         43 
 73.74         48 
 73.76         47 
 73.78         36 
 73.8          60 
 73.82         54 
 73.84         54 
 73.86         44 
 73.88         50 
 73.9          36 
 73.92         48 
 73.93999      54 
 73.96         54 
 73.98         44 
 74            42 
 74.02         48 
 74.04         37 
 74.06         45 
 74.08         58 
 74.1          46 
 74.12         53 
 74.14         48 
 74.16         47 
 74.18         41 
 74.2          57 
 74.22         51 
 74.24         50 
 74.26         52 
 74.28         44 
 74.3          51 
 74.32         47 
 74.34         41 
 74.36         39 
 74.38         51 
 74.4          42 
 74.42         58 
 74.43999      55 
 74.46         40 
 74.48         45 
 74.5          43 
 74.52         46 
 74.54         43 
 74.56         44 
 74.58         48 
 74.6          47 
 74.62         52 
 74.64         46 
 74.66         39 
 74.68         48 
 74.7          52 
 74.72         46 
 74.74         47 
 74.76         32 
 74.78         40 
 74.8          43 
 74.82         44 
 74.84         47 
 74.86         56 
 74.88         52 
 74.9          51 
 74.92         39 
 74.93999      54 
 74.96         54 
 74.98         44 
 75            58 
