LTO auf L432 750°C Fast  Original Data
 3151 
 12            428 
 12.02         455 
 12.04         424 
 12.06         429 
 12.08         464 
 12.1          453 
 12.12         453 
 12.14         438 
 12.16         461 
 12.18         484 
 12.2          498 
 12.22         486 
 12.24         450 
 12.26         426 
 12.28         474 
 12.3          472 
 12.32         457 
 12.34         462 
 12.36         483 
 12.38         466 
 12.4          454 
 12.42         473 
 12.44         457 
 12.46         510 
 12.48         432 
 12.5          480 
 12.52         454 
 12.54         479 
 12.56         464 
 12.58         483 
 12.6          477 
 12.62         450 
 12.64         470 
 12.66         473 
 12.68         473 
 12.7          450 
 12.72         501 
 12.74         441 
 12.76         468 
 12.78         473 
 12.8          486 
 12.82         451 
 12.84         482 
 12.86         461 
 12.88         449 
 12.9          480 
 12.92         472 
 12.94         507 
 12.96         459 
 12.98         489 
 13            433 
 13.02         451 
 13.04         466 
 13.06         461 
 13.08         448 
 13.1          449 
 13.12         452 
 13.14         441 
 13.16         454 
 13.18         424 
 13.2          405 
 13.22         420 
 13.24         428 
 13.26         425 
 13.28         446 
 13.3          439 
 13.32         435 
 13.34         436 
 13.36         453 
 13.38         402 
 13.4          411 
 13.42         429 
 13.44         417 
 13.46         408 
 13.48         426 
 13.5          420 
 13.52         432 
 13.54         449 
 13.56         401 
 13.58         404 
 13.6          390 
 13.62         380 
 13.64         379 
 13.66         371 
 13.68         386 
 13.7          450 
 13.72         384 
 13.74         392 
 13.76         377 
 13.78         395 
 13.8          405 
 13.82         381 
 13.84         373 
 13.86         375 
 13.88         362 
 13.9          370 
 13.92         369 
 13.94         345 
 13.96         376 
 13.98         360 
 14            353 
 14.02         341 
 14.04         328 
 14.06         366 
 14.08         329 
 14.1          349 
 14.12         340 
 14.14         377 
 14.16         307 
 14.18         348 
 14.2          294 
 14.22         370 
 14.24         346 
 14.26         338 
 14.28         323 
 14.3          317 
 14.32         305 
 14.34         309 
 14.36         320 
 14.38         290 
 14.4          285 
 14.42         272 
 14.44         316 
 14.46         298 
 14.48         314 
 14.5          264 
 14.52         302 
 14.54         282 
 14.56         290 
 14.58         295 
 14.6          278 
 14.62         285 
 14.64         300 
 14.66         288 
 14.68         259 
 14.7          287 
 14.72         272 
 14.74         285 
 14.76         220 
 14.78         237 
 14.8          241 
 14.82         260 
 14.84         256 
 14.86         246 
 14.88         258 
 14.9          255 
 14.92         250 
 14.94         265 
 14.96         246 
 14.98         254 
 15            252 
 15.02         224 
 15.04         244 
 15.06         236 
 15.08         241 
 15.1          242 
 15.12         221 
 15.14         262 
 15.16         250 
 15.18         228 
 15.2          225 
 15.22         202 
 15.24         220 
 15.26         229 
 15.28         218 
 15.3          262 
 15.32         231 
 15.34         232 
 15.36         181 
 15.38         205 
 15.4          224 
 15.42         184 
 15.44         229 
 15.46         190 
 15.48         246 
 15.5          203 
 15.52         189 
 15.54         210 
 15.56         192 
 15.58         173 
 15.6          205 
 15.62         193 
 15.64         202 
 15.66         204 
 15.68         177 
 15.7          191 
 15.72         175 
 15.74         192 
 15.76         172 
 15.78         199 
 15.8          189 
 15.82         200 
 15.84         199 
 15.86         194 
 15.88         211 
 15.9          199 
 15.92         179 
 15.94         170 
 15.96         154 
 15.98         189 
 16            188 
 16.02         188 
 16.04         185 
 16.06         188 
 16.08         174 
 16.1          176 
 16.12         176 
 16.14         164 
 16.16         202 
 16.18         164 
 16.2          196 
 16.22         182 
 16.24         154 
 16.26         181 
 16.28         158 
 16.3          200 
 16.32         170 
 16.34         187 
 16.36         167 
 16.38         145 
 16.4          190 
 16.42         174 
 16.44         186 
 16.46         162 
 16.48         162 
 16.5          143 
 16.52         160 
 16.54         151 
 16.56         162 
 16.58         159 
 16.6          163 
 16.62         177 
 16.64         161 
 16.66         181 
 16.68         140 
 16.7          148 
 16.72         165 
 16.74         153 
 16.76         165 
 16.78         153 
 16.8          152 
 16.82         147 
 16.84         148 
 16.86         148 
 16.88         153 
 16.9          165 
 16.92         152 
 16.94         151 
 16.96         163 
 16.98         123 
 17            140 
 17.02         160 
 17.04         151 
 17.06         155 
 17.08         148 
 17.1          140 
 17.12         137 
 17.14         145 
 17.16         119 
 17.18         162 
 17.2          149 
 17.22         138 
 17.24         149 
 17.26         158 
 17.28         158 
 17.3          141 
 17.32         126 
 17.34         147 
 17.36         137 
 17.38         133 
 17.4          139 
 17.42         171 
 17.44         148 
 17.46         144 
 17.48         144 
 17.5          148 
 17.52         129 
 17.54         163 
 17.56         134 
 17.58         145 
 17.6          146 
 17.62         118 
 17.64         156 
 17.66         127 
 17.68         141 
 17.7          143 
 17.72         137 
 17.74         156 
 17.76         154 
 17.78         138 
 17.8          160 
 17.82         159 
 17.84         178 
 17.86         171 
 17.88         155 
 17.9          160 
 17.92         180 
 17.94         182 
 17.96         213 
 17.98         226 
 18            234 
 18.02         235 
 18.04         263 
 18.06         276 
 18.08         310 
 18.1          318 
 18.12         374 
 18.14         413 
 18.16         456 
 18.18         501 
 18.2          588 
 18.22         627 
 18.24         818 
 18.26         930 
 18.28         1056 
 18.3          1255 
 18.32         1380 
 18.34         1616 
 18.36         1780 
 18.38         1835 
 18.4          1881 
 18.42         1859 
 18.44         1634 
 18.46         1471 
 18.48         1180 
 18.5          884 
 18.52         670 
 18.54         563 
 18.56         433 
 18.58         339 
 18.6          317 
 18.62         254 
 18.64         225 
 18.66         247 
 18.68         215 
 18.7          191 
 18.72         163 
 18.74         189 
 18.76         159 
 18.78         150 
 18.8          159 
 18.82         151 
 18.84         168 
 18.86         149 
 18.88         130 
 18.9          130 
 18.92         148 
 18.94         136 
 18.96         115 
 18.98         110 
 19            126 
 19.02         128 
 19.04         120 
 19.06         130 
 19.08         125 
 19.1          109 
 19.12         119 
 19.14         122 
 19.16         119 
 19.18         110 
 19.2          122 
 19.22         107 
 19.24         133 
 19.26         116 
 19.28         127 
 19.3          116 
 19.32         126 
 19.34         128 
 19.36         122 
 19.38         120 
 19.4          100 
 19.42         113 
 19.44         123 
 19.46         97 
 19.48         102 
 19.5          96 
 19.52         94 
 19.54         111 
 19.56         100 
 19.58         113 
 19.6          109 
 19.62         100 
 19.64         108 
 19.66         127 
 19.68         100 
 19.7          99 
 19.72         94 
 19.74         115 
 19.76         96 
 19.78         110 
 19.8          104 
 19.82         98 
 19.84         102 
 19.86         92 
 19.88         118 
 19.9          104 
 19.92         89 
 19.94         95 
 19.96         85 
 19.98         100 
 20            102 
 20.02         101 
 20.04         106 
 20.06         89 
 20.08         105 
 20.1          84 
 20.12         96 
 20.14         118 
 20.16         104 
 20.18         102 
 20.2          91 
 20.22         80 
 20.24         88 
 20.26         102 
 20.28         104 
 20.3          101 
 20.32         98 
 20.34         104 
 20.36         82 
 20.38         89 
 20.4          108 
 20.42         103 
 20.44         88 
 20.46         104 
 20.48         105 
 20.5          103 
 20.52         88 
 20.54         90 
 20.56         114 
 20.58         103 
 20.6          117 
 20.62         88 
 20.64         109 
 20.66         90 
 20.68         93 
 20.7          91 
 20.72         97 
 20.74         100 
 20.76         99 
 20.78         96 
 20.8          116 
 20.82         94 
 20.84         102 
 20.86         83 
 20.88         89 
 20.9          83 
 20.92         106 
 20.94         93 
 20.96         100 
 20.98         85 
 21            99 
 21.02         80 
 21.04         97 
 21.06         91 
 21.08         98 
 21.1          114 
 21.12         91 
 21.14         89 
 21.16         84 
 21.18         101 
 21.2          92 
 21.22         83 
 21.24         100 
 21.26         92 
 21.28         84 
 21.3          83 
 21.32         92 
 21.34         94 
 21.36         107 
 21.38         83 
 21.4          84 
 21.42         72 
 21.44         88 
 21.46         103 
 21.48         78 
 21.5          103 
 21.52         98 
 21.54         94 
 21.56         89 
 21.58         92 
 21.6          103 
 21.62         93 
 21.64         82 
 21.66         93 
 21.68         75 
 21.7          93 
 21.72         105 
 21.74         91 
 21.76         85 
 21.78         96 
 21.8          97 
 21.82         78 
 21.84         91 
 21.86         83 
 21.88         85 
 21.9          85 
 21.92         104 
 21.94         72 
 21.96         86 
 21.98         85 
 22            93 
 22.02         94 
 22.04         94 
 22.06         81 
 22.08         71 
 22.1          74 
 22.12         70 
 22.14         82 
 22.16         87 
 22.18         86 
 22.2          94 
 22.22         86 
 22.24         80 
 22.26         81 
 22.28         85 
 22.3          81 
 22.32         77 
 22.34         92 
 22.36         70 
 22.38         82 
 22.4          89 
 22.42         90 
 22.44         75 
 22.46         80 
 22.48         69 
 22.5          79 
 22.52         81 
 22.54         79 
 22.56         91 
 22.58         79 
 22.6          109 
 22.62         81 
 22.64         87 
 22.66         85 
 22.68         84 
 22.7          84 
 22.72         65 
 22.74         106 
 22.76         99 
 22.78         96 
 22.8          76 
 22.82         92 
 22.84         100 
 22.86         76 
 22.88         83 
 22.9          85 
 22.92         94 
 22.94         68 
 22.96         78 
 22.98         92 
 23            80 
 23.02         99 
 23.04         85 
 23.06         74 
 23.08         81 
 23.1          90 
 23.12         88 
 23.14         73 
 23.16         67 
 23.18         76 
 23.2          71 
 23.22         61 
 23.24         87 
 23.26         74 
 23.28         68 
 23.3          89 
 23.32         71 
 23.34         72 
 23.36         81 
 23.38         88 
 23.4          92 
 23.42         75 
 23.44         90 
 23.46         80 
 23.48         72 
 23.5          84 
 23.52         77 
 23.54         71 
 23.56         66 
 23.58         79 
 23.6          77 
 23.62         71 
 23.64         81 
 23.66         58 
 23.68         71 
 23.7          101 
 23.72         63 
 23.74         70 
 23.76         75 
 23.78         69 
 23.8          88 
 23.82         87 
 23.84         93 
 23.86         73 
 23.88         93 
 23.9          67 
 23.92         94 
 23.94         87 
 23.96         78 
 23.98         80 
 24            74 
 24.02         73 
 24.04         81 
 24.06         76 
 24.08         62 
 24.1          83 
 24.12         68 
 24.14         78 
 24.16         80 
 24.18         82 
 24.2          74 
 24.22         79 
 24.24         83 
 24.26         79 
 24.28         73 
 24.3          65 
 24.32         89 
 24.34         64 
 24.36         104 
 24.38         95 
 24.4          89 
 24.42         79 
 24.44         79 
 24.46         103 
 24.48         71 
 24.5          86 
 24.52         78 
 24.54         95 
 24.56         80 
 24.58         71 
 24.6          75 
 24.62         90 
 24.64         83 
 24.66         81 
 24.68         72 
 24.7          94 
 24.72         83 
 24.74         93 
 24.76         86 
 24.78         98 
 24.8          98 
 24.82         88 
 24.84         94 
 24.86         77 
 24.88         101 
 24.9          112 
 24.92         110 
 24.94         134 
 24.96         112 
 24.98         106 
 25            133 
 25.02         137 
 25.04         151 
 25.06         157 
 25.08         154 
 25.1          180 
 25.12         213 
 25.14         236 
 25.16         230 
 25.18         282 
 25.2          295 
 25.22         301 
 25.24         336 
 25.26         369 
 25.28         355 
 25.3          344 
 25.32         332 
 25.34         339 
 25.36         273 
 25.38         297 
 25.4          292 
 25.42         230 
 25.44         208 
 25.46         168 
 25.48         129 
 25.5          140 
 25.52         121 
 25.54         105 
 25.56         122 
 25.58         110 
 25.6          102 
 25.62         95 
 25.64         96 
 25.66         112 
 25.68         99 
 25.7          80 
 25.72         99 
 25.74         89 
 25.76         94 
 25.78         77 
 25.8          89 
 25.82         68 
 25.84         89 
 25.86         93 
 25.88         115 
 25.9          85 
 25.92         119 
 25.94         93 
 25.96         95 
 25.98         111 
 26            103 
 26.02         97 
 26.04         95 
 26.06         107 
 26.08         117 
 26.1          135 
 26.12         138 
 26.14         126 
 26.16         148 
 26.18         127 
 26.2          139 
 26.22         155 
 26.24         160 
 26.26         165 
 26.28         163 
 26.3          188 
 26.32         206 
 26.34         220 
 26.36         252 
 26.38         274 
 26.4          263 
 26.42         295 
 26.44         293 
 26.46         297 
 26.48         282 
 26.5          342 
 26.52         358 
 26.54         362 
 26.56         335 
 26.58         321 
 26.6          298 
 26.62         288 
 26.64         277 
 26.66         260 
 26.68         236 
 26.7          228 
 26.72         199 
 26.74         197 
 26.76         181 
 26.78         175 
 26.8          163 
 26.82         203 
 26.84         172 
 26.86         203 
 26.88         214 
 26.9          189 
 26.92         210 
 26.94         242 
 26.96         260 
 26.98         269 
 27            320 
 27.02         299 
 27.04         361 
 27.06         387 
 27.08         479 
 27.1          472 
 27.12         554 
 27.14         572 
 27.16         658 
 27.18         795 
 27.2          838 
 27.22         981 
 27.24         1228 
 27.26         1422 
 27.28         1604 
 27.3          1796 
 27.32         2238 
 27.34         2614 
 27.36         2964 
 27.38         3235 
 27.4          3677 
 27.42         3868 
 27.44         4112 
 27.46         4024 
 27.48         3967 
 27.5          3721 
 27.52         3084 
 27.54         2734 
 27.56         2178 
 27.58         1809 
 27.6          1372 
 27.62         1127 
 27.64         807 
 27.66         657 
 27.68         501 
 27.7          479 
 27.72         380 
 27.74         337 
 27.76         318 
 27.78         257 
 27.8          260 
 27.82         227 
 27.84         196 
 27.86         166 
 27.88         195 
 27.9          133 
 27.92         131 
 27.94         157 
 27.96         140 
 27.98         134 
 28            122 
 28.02         126 
 28.04         129 
 28.06         106 
 28.08         113 
 28.1          115 
 28.12         111 
 28.14         80 
 28.16         87 
 28.18         103 
 28.2          110 
 28.22         101 
 28.24         98 
 28.26         105 
 28.28         112 
 28.3          84 
 28.32         78 
 28.34         95 
 28.36         86 
 28.38         93 
 28.4          75 
 28.42         64 
 28.44         100 
 28.46         72 
 28.48         75 
 28.5          99 
 28.52         80 
 28.54         64 
 28.56         72 
 28.58         68 
 28.6          80 
 28.62         88 
 28.64         79 
 28.66         94 
 28.68         83 
 28.7          62 
 28.72         73 
 28.74         88 
 28.76         76 
 28.78         75 
 28.8          74 
 28.82         66 
 28.84         64 
 28.86         82 
 28.88         68 
 28.9          72 
 28.92         91 
 28.94         66 
 28.96         72 
 28.98         71 
 29            59 
 29.02         80 
 29.04         68 
 29.06         69 
 29.08         56 
 29.1          73 
 29.12         66 
 29.14         60 
 29.16         60 
 29.18         81 
 29.2          87 
 29.22         59 
 29.24         61 
 29.26         64 
 29.28         66 
 29.3          78 
 29.32         56 
 29.34         69 
 29.36         73 
 29.38         66 
 29.4          62 
 29.42         75 
 29.44         68 
 29.46         56 
 29.48         60 
 29.5          56 
 29.52         74 
 29.54         66 
 29.56         59 
 29.58         66 
 29.6          65 
 29.62         75 
 29.64         68 
 29.66         51 
 29.68         71 
 29.7          79 
 29.72         83 
 29.74         65 
 29.76         62 
 29.78         63 
 29.8          54 
 29.82         78 
 29.84         58 
 29.86         61 
 29.88         67 
 29.9          62 
 29.92         62 
 29.94         56 
 29.96         62 
 29.98         82 
 30            74 
 30.02         63 
 30.04         74 
 30.06         82 
 30.08         77 
 30.1          83 
 30.12         80 
 30.14         81 
 30.16         89 
 30.18         79 
 30.2          78 
 30.22         108 
 30.24         111 
 30.26         94 
 30.28         109 
 30.3          100 
 30.32         88 
 30.34         82 
 30.36         79 
 30.38         73 
 30.4          62 
 30.42         77 
 30.44         57 
 30.46         69 
 30.48         71 
 30.5          77 
 30.52         81 
 30.54         69 
 30.56         62 
 30.58         73 
 30.6          54 
 30.62         52 
 30.64         56 
 30.66         66 
 30.68         56 
 30.7          48 
 30.72         69 
 30.74         62 
 30.76         51 
 30.78         50 
 30.8          49 
 30.82         57 
 30.84         57 
 30.86         47 
 30.88         71 
 30.9          52 
 30.92         53 
 30.94         48 
 30.96         56 
 30.98         54 
 31            57 
 31.02         65 
 31.04         54 
 31.06         53 
 31.08         55 
 31.1          58 
 31.12         62 
 31.14         63 
 31.16         49 
 31.18         61 
 31.2          62 
 31.22         56 
 31.24         68 
 31.26         61 
 31.28         59 
 31.3          60 
 31.32         69 
 31.34         44 
 31.36         51 
 31.38         53 
 31.4          58 
 31.42         60 
 31.44         55 
 31.46         50 
 31.48         45 
 31.5          53 
 31.52         58 
 31.54         52 
 31.56         53 
 31.58         65 
 31.6          50 
 31.62         39 
 31.64         57 
 31.66         66 
 31.68         52 
 31.7          61 
 31.72         41 
 31.74         62 
 31.76         59 
 31.78         44 
 31.8          49 
 31.82         49 
 31.84         44 
 31.86         45 
 31.88         72 
 31.9          58 
 31.92         47 
 31.94         43 
 31.96         63 
 31.98         52 
 32            62 
 32.02         62 
 32.04         47 
 32.06         62 
 32.08         47 
 32.1          49 
 32.12         54 
 32.14         61 
 32.16         45 
 32.18         55 
 32.2          58 
 32.22         49 
 32.24         52 
 32.26         58 
 32.28         66 
 32.3          48 
 32.32         49 
 32.34         60 
 32.36         55 
 32.38         45 
 32.4          50 
 32.42         51 
 32.44         50 
 32.46         43 
 32.48         47 
 32.5          52 
 32.52         56 
 32.54         48 
 32.56         53 
 32.58         51 
 32.6          50 
 32.62         50 
 32.64         43 
 32.66         50 
 32.68         48 
 32.7          53 
 32.72         39 
 32.74         51 
 32.76         40 
 32.78         52 
 32.8          43 
 32.82         50 
 32.84         57 
 32.86         50 
 32.88         48 
 32.9          47 
 32.92         44 
 32.94         48 
 32.96         52 
 32.98         41 
 33            40 
 33.02         45 
 33.04         51 
 33.06         55 
 33.08         43 
 33.1          42 
 33.12         51 
 33.14         56 
 33.16         51 
 33.18         52 
 33.2          33 
 33.22         48 
 33.24         48 
 33.26         49 
 33.28         42 
 33.3          67 
 33.32         50 
 33.34         62 
 33.36         57 
 33.38         47 
 33.4          53 
 33.42         40 
 33.44         31 
 33.46         50 
 33.48         52 
 33.5          48 
 33.52         56 
 33.54         45 
 33.56         47 
 33.58         40 
 33.6          55 
 33.62         46 
 33.64         46 
 33.66         39 
 33.68         51 
 33.7          46 
 33.72         49 
 33.74         49 
 33.76         44 
 33.78         62 
 33.8          56 
 33.82         48 
 33.84         55 
 33.86         44 
 33.88         48 
 33.9          49 
 33.92         51 
 33.94         36 
 33.96         32 
 33.98         61 
 34            39 
 34.02         58 
 34.04         43 
 34.06         56 
 34.08         48 
 34.1          56 
 34.12         54 
 34.14         47 
 34.16         59 
 34.18         43 
 34.2          59 
 34.22         38 
 34.24         41 
 34.26         52 
 34.28         53 
 34.3          60 
 34.32         47 
 34.34         48 
 34.36         50 
 34.38         43 
 34.4          55 
 34.42         47 
 34.44         51 
 34.46         42 
 34.48         54 
 34.5          64 
 34.52         51 
 34.54         41 
 34.56         58 
 34.58         49 
 34.6          52 
 34.62         55 
 34.64         44 
 34.66         47 
 34.68         59 
 34.7          56 
 34.72         43 
 34.74         59 
 34.76         62 
 34.78         62 
 34.8          54 
 34.82         53 
 34.84         60 
 34.86         57 
 34.88         74 
 34.9          67 
 34.92         63 
 34.94         56 
 34.96         80 
 34.98         60 
 35            69 
 35.02         62 
 35.04         69 
 35.06         67 
 35.08         74 
 35.1          79 
 35.12         87 
 35.14         104 
 35.16         98 
 35.18         79 
 35.2          107 
 35.22         109 
 35.24         134 
 35.26         140 
 35.28         147 
 35.3          158 
 35.32         160 
 35.34         191 
 35.36         212 
 35.38         222 
 35.4          297 
 35.42         308 
 35.44         358 
 35.46         407 
 35.48         475 
 35.5          511 
 35.52         649 
 35.54         797 
 35.56         913 
 35.58         1041 
 35.6          1226 
 35.62         1376 
 35.64         1397 
 35.66         1374 
 35.68         1336 
 35.7          1271 
 35.72         1073 
 35.74         969 
 35.76         886 
 35.78         699 
 35.8          679 
 35.82         528 
 35.84         502 
 35.86         477 
 35.88         457 
 35.9          524 
 35.92         535 
 35.94         606 
 35.96         706 
 35.98         751 
 36            816 
 36.02         905 
 36.04         957 
 36.06         895 
 36.08         984 
 36.1          968 
 36.12         904 
 36.14         855 
 36.16         762 
 36.18         675 
 36.2          584 
 36.22         498 
 36.24         385 
 36.26         333 
 36.28         290 
 36.3          246 
 36.32         187 
 36.34         180 
 36.36         162 
 36.38         129 
 36.4          117 
 36.42         99 
 36.44         85 
 36.46         95 
 36.48         84 
 36.5          82 
 36.52         85 
 36.54         82 
 36.56         64 
 36.58         63 
 36.6          69 
 36.62         62 
 36.64         55 
 36.66         69 
 36.68         51 
 36.7          63 
 36.72         56 
 36.74         43 
 36.76         68 
 36.78         53 
 36.8          53 
 36.82         64 
 36.84         53 
 36.86         55 
 36.88         64 
 36.9          57 
 36.92         59 
 36.94         56 
 36.96         55 
 36.98         60 
 37            57 
 37.02         58 
 37.04         66 
 37.06         54 
 37.08         62 
 37.1          55 
 37.12         76 
 37.14         71 
 37.16         64 
 37.18         81 
 37.2          89 
 37.22         89 
 37.24         107 
 37.26         107 
 37.28         111 
 37.3          103 
 37.32         121 
 37.34         79 
 37.36         85 
 37.38         75 
 37.4          87 
 37.42         82 
 37.44         59 
 37.46         55 
 37.48         61 
 37.5          48 
 37.52         60 
 37.54         48 
 37.56         66 
 37.58         51 
 37.6          67 
 37.62         58 
 37.64         75 
 37.66         69 
 37.68         53 
 37.7          55 
 37.72         56 
 37.74         79 
 37.76         66 
 37.78         60 
 37.8          66 
 37.82         63 
 37.84         66 
 37.86         49 
 37.88         57 
 37.9          66 
 37.92         57 
 37.94         45 
 37.96         62 
 37.98         40 
 38            38 
 38.02         40 
 38.04         48 
 38.06         38 
 38.08         50 
 38.1          36 
 38.12         43 
 38.14         50 
 38.16         32 
 38.18         39 
 38.2          45 
 38.22         37 
 38.24         40 
 38.26         45 
 38.28         46 
 38.3          37 
 38.32         49 
 38.34         45 
 38.36         43 
 38.38         43 
 38.4          45 
 38.42         60 
 38.44         33 
 38.46         33 
 38.48         54 
 38.5          49 
 38.52         60 
 38.54         52 
 38.56         49 
 38.58         51 
 38.6          36 
 38.62         56 
 38.64         40 
 38.66         52 
 38.68         50 
 38.7          61 
 38.72         67 
 38.74         59 
 38.76         67 
 38.78         61 
 38.8          71 
 38.82         60 
 38.84         67 
 38.86         72 
 38.88         64 
 38.9          92 
 38.92         102 
 38.94         76 
 38.96         102 
 38.98         111 
 39            127 
 39.02         126 
 39.04         157 
 39.06         179 
 39.08         205 
 39.1          194 
 39.12         229 
 39.14         218 
 39.16         243 
 39.18         211 
 39.2          257 
 39.22         271 
 39.24         276 
 39.26         225 
 39.28         196 
 39.3          211 
 39.32         168 
 39.34         144 
 39.36         137 
 39.38         104 
 39.4          98 
 39.42         95 
 39.44         85 
 39.46         57 
 39.48         67 
 39.5          53 
 39.52         58 
 39.54         46 
 39.56         41 
 39.58         40 
 39.6          40 
 39.62         39 
 39.64         40 
 39.66         43 
 39.68         40 
 39.7          40 
 39.72         47 
 39.74         41 
 39.76         46 
 39.78         40 
 39.8          43 
 39.82         43 
 39.84         33 
 39.86         45 
 39.88         35 
 39.9          34 
 39.92         37 
 39.94         38 
 39.96         32 
 39.98         40 
 40            43 
 40.02         41 
 40.04         40 
 40.06         48 
 40.08         37 
 40.1          27 
 40.12         22 
 40.14         36 
 40.16         52 
 40.18         32 
 40.2          28 
 40.22         34 
 40.24         32 
 40.26         35 
 40.28         52 
 40.3          39 
 40.32         45 
 40.34         33 
 40.36         34 
 40.38         37 
 40.4          41 
 40.42         39 
 40.44         44 
 40.46         38 
 40.48         43 
 40.5          35 
 40.52         39 
 40.54         43 
 40.56         40 
 40.58         28 
 40.6          43 
 40.62         47 
 40.64         49 
 40.66         34 
 40.68         40 
 40.7          40 
 40.72         30 
 40.74         53 
 40.76         58 
 40.78         61 
 40.8          66 
 40.82         72 
 40.84         74 
 40.86         67 
 40.88         94 
 40.9          104 
 40.92         80 
 40.94         104 
 40.96         129 
 40.98         134 
 41            145 
 41.02         167 
 41.04         202 
 41.06         196 
 41.08         229 
 41.1          285 
 41.12         285 
 41.14         390 
 41.16         383 
 41.18         440 
 41.2          472 
 41.22         519 
 41.24         520 
 41.26         515 
 41.28         514 
 41.3          461 
 41.32         467 
 41.34         396 
 41.36         337 
 41.38         238 
 41.4          262 
 41.42         189 
 41.44         177 
 41.46         157 
 41.48         133 
 41.5          103 
 41.52         101 
 41.54         96 
 41.56         76 
 41.58         66 
 41.6          68 
 41.62         66 
 41.64         57 
 41.66         54 
 41.68         58 
 41.7          44 
 41.72         61 
 41.74         53 
 41.76         48 
 41.78         54 
 41.8          46 
 41.82         49 
 41.84         55 
 41.86         46 
 41.88         48 
 41.9          40 
 41.92         43 
 41.94         44 
 41.96         46 
 41.98         42 
 42            36 
 42.02         42 
 42.04         42 
 42.06         37 
 42.08         37 
 42.1          43 
 42.12         53 
 42.14         48 
 42.16         40 
 42.18         44 
 42.2          49 
 42.22         51 
 42.24         51 
 42.26         48 
 42.28         55 
 42.3          46 
 42.32         50 
 42.34         44 
 42.36         52 
 42.38         45 
 42.4          64 
 42.42         48 
 42.44         57 
 42.46         51 
 42.48         52 
 42.5          60 
 42.52         59 
 42.54         74 
 42.56         66 
 42.58         69 
 42.6          73 
 42.62         78 
 42.64         58 
 42.66         71 
 42.68         78 
 42.7          84 
 42.72         79 
 42.74         86 
 42.76         81 
 42.78         98 
 42.8          100 
 42.82         122 
 42.84         119 
 42.86         150 
 42.88         174 
 42.9          157 
 42.92         170 
 42.94         194 
 42.96         221 
 42.98         242 
 43            267 
 43.02         290 
 43.04         325 
 43.06         391 
 43.08         445 
 43.1          494 
 43.12         558 
 43.14         693 
 43.16         832 
 43.18         962 
 43.2          1120 
 43.22         1344 
 43.24         1577 
 43.26         1833 
 43.28         1917 
 43.3          2060 
 43.32         2174 
 43.34         2069 
 43.36         2033 
 43.38         1876 
 43.4          1613 
 43.42         1450 
 43.44         1231 
 43.46         983 
 43.48         851 
 43.5          690 
 43.52         570 
 43.54         478 
 43.56         397 
 43.58         300 
 43.6          273 
 43.62         230 
 43.64         223 
 43.66         200 
 43.68         180 
 43.7          167 
 43.72         157 
 43.74         165 
 43.76         157 
 43.78         197 
 43.8          174 
 43.82         154 
 43.84         189 
 43.86         173 
 43.88         200 
 43.9          208 
 43.92         249 
 43.94         243 
 43.96         274 
 43.98         261 
 44            275 
 44.02         332 
 44.04         342 
 44.06         345 
 44.08         325 
 44.1          327 
 44.12         289 
 44.14         260 
 44.16         249 
 44.18         214 
 44.2          192 
 44.22         155 
 44.24         150 
 44.26         127 
 44.28         102 
 44.3          103 
 44.32         106 
 44.34         77 
 44.36         77 
 44.38         81 
 44.4          60 
 44.42         62 
 44.44         67 
 44.46         52 
 44.48         53 
 44.5          44 
 44.52         45 
 44.54         34 
 44.56         52 
 44.58         33 
 44.6          52 
 44.62         49 
 44.64         53 
 44.66         39 
 44.68         25 
 44.7          34 
 44.72         36 
 44.74         46 
 44.76         26 
 44.78         31 
 44.8          46 
 44.82         37 
 44.84         42 
 44.86         33 
 44.88         35 
 44.9          39 
 44.92         33 
 44.94         37 
 44.96         36 
 44.98         52 
 45            32 
 45.02         33 
 45.04         26 
 45.06         36 
 45.08         40 
 45.1          31 
 45.12         46 
 45.14         28 
 45.16         34 
 45.18         34 
 45.2          40 
 45.22         40 
 45.24         33 
 45.26         37 
 45.28         35 
 45.3          40 
 45.32         30 
 45.34         34 
 45.36         42 
 45.38         30 
 45.4          32 
 45.42         31 
 45.44         32 
 45.46         40 
 45.48         25 
 45.5          38 
 45.52         25 
 45.54         35 
 45.56         41 
 45.58         38 
 45.6          37 
 45.62         47 
 45.64         34 
 45.66         42 
 45.68         41 
 45.7          30 
 45.72         40 
 45.74         32 
 45.76         32 
 45.78         23 
 45.8          36 
 45.82         29 
 45.84         19 
 45.86         30 
 45.88         35 
 45.9          32 
 45.92         27 
 45.94         29 
 45.96         21 
 45.98         27 
 46            30 
 46.02         26 
 46.04         30 
 46.06         39 
 46.08         27 
 46.1          34 
 46.12         29 
 46.14         41 
 46.16         45 
 46.18         31 
 46.2          28 
 46.22         39 
 46.24         26 
 46.26         27 
 46.28         36 
 46.3          38 
 46.32         34 
 46.34         34 
 46.36         35 
 46.38         39 
 46.4          27 
 46.42         32 
 46.44         40 
 46.46         32 
 46.48         36 
 46.5          43 
 46.52         40 
 46.54         27 
 46.56         27 
 46.58         23 
 46.6          30 
 46.62         33 
 46.64         29 
 46.66         33 
 46.68         31 
 46.7          32 
 46.72         29 
 46.74         35 
 46.76         29 
 46.78         30 
 46.8          27 
 46.82         43 
 46.84         35 
 46.86         32 
 46.88         33 
 46.9          33 
 46.92         46 
 46.94         34 
 46.96         48 
 46.98         33 
 47            33 
 47.02         49 
 47.04         53 
 47.06         44 
 47.08         49 
 47.1          44 
 47.12         51 
 47.14         54 
 47.16         68 
 47.18         67 
 47.2          68 
 47.22         62 
 47.24         83 
 47.26         90 
 47.28         128 
 47.3          104 
 47.32         144 
 47.34         169 
 47.36         199 
 47.38         217 
 47.4          211 
 47.42         232 
 47.44         250 
 47.46         192 
 47.48         207 
 47.5          183 
 47.52         174 
 47.54         141 
 47.56         145 
 47.58         135 
 47.6          113 
 47.62         106 
 47.64         82 
 47.66         89 
 47.68         59 
 47.7          65 
 47.72         54 
 47.74         55 
 47.76         64 
 47.78         44 
 47.8          51 
 47.82         45 
 47.84         67 
 47.86         56 
 47.88         67 
 47.9          66 
 47.92         54 
 47.94         71 
 47.96         75 
 47.98         68 
 48            73 
 48.02         67 
 48.04         76 
 48.06         61 
 48.08         82 
 48.1          67 
 48.12         61 
 48.14         65 
 48.16         63 
 48.18         68 
 48.2          58 
 48.22         52 
 48.24         54 
 48.26         45 
 48.28         31 
 48.3          37 
 48.32         43 
 48.34         48 
 48.36         33 
 48.38         28 
 48.4          51 
 48.42         41 
 48.44         40 
 48.46         33 
 48.48         33 
 48.5          35 
 48.52         40 
 48.54         38 
 48.56         31 
 48.58         39 
 48.6          24 
 48.62         28 
 48.64         27 
 48.66         30 
 48.68         32 
 48.7          25 
 48.72         42 
 48.74         38 
 48.76         31 
 48.78         19 
 48.8          29 
 48.82         32 
 48.84         26 
 48.86         31 
 48.88         36 
 48.9          25 
 48.92         35 
 48.94         30 
 48.96         34 
 48.98         34 
 49            31 
 49.02         33 
 49.04         31 
 49.06         32 
 49.08         27 
 49.1          21 
 49.12         23 
 49.14         30 
 49.16         25 
 49.18         43 
 49.2          38 
 49.22         29 
 49.24         26 
 49.26         35 
 49.28         20 
 49.3          37 
 49.32         36 
 49.34         24 
 49.36         22 
 49.38         24 
 49.4          35 
 49.42         31 
 49.44         30 
 49.46         31 
 49.48         32 
 49.5          28 
 49.52         33 
 49.54         29 
 49.56         22 
 49.58         39 
 49.6          23 
 49.62         28 
 49.64         28 
 49.66         26 
 49.68         29 
 49.7          27 
 49.72         27 
 49.74         30 
 49.76         35 
 49.78         31 
 49.8          43 
 49.82         32 
 49.84         29 
 49.86         36 
 49.88         36 
 49.9          42 
 49.92         27 
 49.94         31 
 49.96         33 
 49.98         38 
 50            30 
 50.02         36 
 50.04         37 
 50.06         28 
 50.08         37 
 50.1          35 
 50.12         33 
 50.14         36 
 50.16         35 
 50.18         31 
 50.2          34 
 50.22         33 
 50.24         38 
 50.26         39 
 50.28         36 
 50.3          35 
 50.32         31 
 50.34         23 
 50.36         34 
 50.38         30 
 50.4          34 
 50.42         39 
 50.44         29 
 50.46         41 
 50.48         41 
 50.5          32 
 50.52         27 
 50.54         30 
 50.56         22 
 50.58         24 
 50.6          27 
 50.62         30 
 50.64         32 
 50.66         30 
 50.68         35 
 50.7          32 
 50.72         22 
 50.74         40 
 50.76         29 
 50.78         38 
 50.8          34 
 50.82         30 
 50.84         28 
 50.86         29 
 50.88         33 
 50.9          31 
 50.92         35 
 50.94         34 
 50.96         30 
 50.98         22 
 51            42 
 51.02         39 
 51.04         34 
 51.06         41 
 51.08         27 
 51.1          27 
 51.12         29 
 51.14         38 
 51.16         34 
 51.18         23 
 51.2          40 
 51.22         28 
 51.24         33 
 51.26         28 
 51.28         32 
 51.3          32 
 51.32         31 
 51.34         40 
 51.36         31 
 51.38         31 
 51.4          31 
 51.42         30 
 51.44         38 
 51.46         37 
 51.48         37 
 51.5          32 
 51.52         34 
 51.54         30 
 51.56         33 
 51.58         30 
 51.6          32 
 51.62         28 
 51.64         31 
 51.66         35 
 51.68         31 
 51.7          37 
 51.72         35 
 51.74         25 
 51.76         36 
 51.78         23 
 51.8          24 
 51.82         34 
 51.84         26 
 51.86         37 
 51.88         27 
 51.9          30 
 51.92         40 
 51.94         38 
 51.96         32 
 51.98         30 
 52            30 
 52.02         29 
 52.04         24 
 52.06         31 
 52.08         31 
 52.1          29 
 52.12         37 
 52.14         28 
 52.16         37 
 52.18         33 
 52.2          34 
 52.22         34 
 52.24         27 
 52.26         36 
 52.28         27 
 52.3          42 
 52.32         27 
 52.34         35 
 52.36         32 
 52.38         34 
 52.4          37 
 52.42         29 
 52.44         34 
 52.46         33 
 52.48         26 
 52.5          35 
 52.52         29 
 52.54         37 
 52.56         29 
 52.58         36 
 52.6          23 
 52.62         25 
 52.64         26 
 52.66         26 
 52.68         24 
 52.7          27 
 52.72         40 
 52.74         36 
 52.76         31 
 52.78         32 
 52.8          31 
 52.82         33 
 52.84         29 
 52.86         41 
 52.88         32 
 52.9          42 
 52.92         40 
 52.94         25 
 52.96         40 
 52.98         38 
 53            34 
 53.02         46 
 53.04         26 
 53.06         39 
 53.08         33 
 53.1          30 
 53.12         26 
 53.14         38 
 53.16         43 
 53.18         38 
 53.2          29 
 53.22         38 
 53.24         43 
 53.26         45 
 53.28         38 
 53.3          36 
 53.32         35 
 53.34         39 
 53.36         40 
 53.38         34 
 53.4          48 
 53.42         49 
 53.44         51 
 53.46         44 
 53.48         49 
 53.5          45 
 53.52         63 
 53.54         59 
 53.56         62 
 53.58         53 
 53.6          65 
 53.62         70 
 53.64         58 
 53.66         81 
 53.68         77 
 53.7          95 
 53.72         86 
 53.74         93 
 53.76         72 
 53.78         116 
 53.8          128 
 53.82         107 
 53.84         138 
 53.86         135 
 53.88         140 
 53.9          188 
 53.92         185 
 53.94         206 
 53.96         224 
 53.98         220 
 54            254 
 54.02         288 
 54.04         325 
 54.06         378 
 54.08         445 
 54.1          448 
 54.12         527 
 54.14         620 
 54.16         722 
 54.18         800 
 54.2          913 
 54.22         993 
 54.24         1081 
 54.26         1227 
 54.28         1206 
 54.3          1344 
 54.32         1338 
 54.34         1333 
 54.36         1329 
 54.38         1243 
 54.4          1246 
 54.42         1099 
 54.44         1107 
 54.46         887 
 54.48         865 
 54.5          715 
 54.52         635 
 54.54         589 
 54.56         469 
 54.58         384 
 54.6          316 
 54.62         296 
 54.64         282 
 54.66         217 
 54.68         183 
 54.7          182 
 54.72         147 
 54.74         130 
 54.76         127 
 54.78         119 
 54.8          112 
 54.82         105 
 54.84         98 
 54.86         125 
 54.88         98 
 54.9          75 
 54.92         86 
 54.94         80 
 54.96         80 
 54.98         82 
 55            72 
 55.02         91 
 55.04         81 
 55.06         86 
 55.08         80 
 55.1          75 
 55.12         79 
 55.14         78 
 55.16         78 
 55.18         73 
 55.2          65 
 55.22         66 
 55.24         61 
 55.26         65 
 55.28         61 
 55.3          55 
 55.32         52 
 55.34         52 
 55.36         50 
 55.38         46 
 55.4          55 
 55.42         51 
 55.44         57 
 55.46         39 
 55.48         54 
 55.5          49 
 55.52         42 
 55.54         43 
 55.56         45 
 55.58         48 
 55.6          49 
 55.62         43 
 55.64         45 
 55.66         41 
 55.68         47 
 55.7          37 
 55.72         48 
 55.74         38 
 55.76         48 
 55.78         49 
 55.8          33 
 55.82         42 
 55.84         54 
 55.86         64 
 55.88         48 
 55.9          53 
 55.92         57 
 55.94         46 
 55.96         49 
 55.98         54 
 56            67 
 56.02         55 
 56.04         58 
 56.06         58 
 56.08         62 
 56.1          64 
 56.12         62 
 56.14         68 
 56.16         70 
 56.18         69 
 56.2          67 
 56.22         84 
 56.24         85 
 56.26         98 
 56.28         133 
 56.3          93 
 56.32         104 
 56.34         160 
 56.36         144 
 56.38         161 
 56.4          184 
 56.42         207 
 56.44         247 
 56.46         254 
 56.48         300 
 56.5          375 
 56.52         385 
 56.54         478 
 56.56         476 
 56.58         571 
 56.6          550 
 56.62         611 
 56.64         592 
 56.66         616 
 56.68         632 
 56.7          605 
 56.72         550 
 56.74         476 
 56.76         472 
 56.78         419 
 56.8          386 
 56.82         331 
 56.84         313 
 56.86         286 
 56.88         224 
 56.9          201 
 56.92         222 
 56.94         211 
 56.96         184 
 56.98         200 
 57            181 
 57.02         181 
 57.04         228 
 57.06         197 
 57.08         247 
 57.1          291 
 57.12         296 
 57.14         334 
 57.16         381 
 57.18         426 
 57.2          563 
 57.22         624 
 57.24         663 
 57.26         654 
 57.28         675 
 57.3          681 
 57.32         652 
 57.34         574 
 57.36         575 
 57.38         511 
 57.4          460 
 57.42         427 
 57.44         387 
 57.46         338 
 57.48         299 
 57.5          281 
 57.52         189 
 57.54         150 
 57.56         164 
 57.58         129 
 57.6          99 
 57.62         108 
 57.64         92 
 57.66         85 
 57.68         80 
 57.7          90 
 57.72         68 
 57.74         66 
 57.76         56 
 57.78         60 
 57.8          50 
 57.82         57 
 57.84         54 
 57.86         48 
 57.88         42 
 57.9          46 
 57.92         54 
 57.94         49 
 57.96         46 
 57.98         42 
 58            36 
 58.02         39 
 58.04         49 
 58.06         47 
 58.08         41 
 58.1          48 
 58.12         40 
 58.14         49 
 58.16         33 
 58.18         33 
 58.2          50 
 58.22         46 
 58.24         49 
 58.26         38 
 58.28         57 
 58.3          49 
 58.32         39 
 58.34         35 
 58.36         37 
 58.38         34 
 58.4          34 
 58.42         40 
 58.44         46 
 58.46         46 
 58.48         37 
 58.5          30 
 58.52         39 
 58.54         32 
 58.56         38 
 58.58         37 
 58.6          41 
 58.62         30 
 58.64         41 
 58.66         38 
 58.68         36 
 58.7          39 
 58.72         37 
 58.74         43 
 58.76         24 
 58.78         32 
 58.8          32 
 58.82         42 
 58.84         35 
 58.86         37 
 58.88         40 
 58.9          32 
 58.92         38 
 58.94         24 
 58.96         30 
 58.98         37 
 59            27 
 59.02         33 
 59.04         43 
 59.06         37 
 59.08         34 
 59.1          40 
 59.12         33 
 59.14         32 
 59.16         37 
 59.18         37 
 59.2          49 
 59.22         25 
 59.24         40 
 59.26         35 
 59.28         28 
 59.3          26 
 59.32         33 
 59.34         31 
 59.36         32 
 59.38         34 
 59.4          36 
 59.42         38 
 59.44         41 
 59.46         29 
 59.48         28 
 59.5          35 
 59.52         39 
 59.54         35 
 59.56         39 
 59.58         28 
 59.6          31 
 59.62         39 
 59.64         45 
 59.66         34 
 59.68         37 
 59.7          26 
 59.72         32 
 59.74         38 
 59.76         39 
 59.78         28 
 59.8          33 
 59.82         35 
 59.84         32 
 59.86         47 
 59.88         39 
 59.9          34 
 59.92         39 
 59.94         45 
 59.96         36 
 59.98         38 
 60            28 
 60.02         37 
 60.04         33 
 60.06         37 
 60.08         30 
 60.1          30 
 60.12         26 
 60.14         40 
 60.16         33 
 60.18         41 
 60.2          35 
 60.22         33 
 60.24         34 
 60.26         40 
 60.28         32 
 60.3          31 
 60.32         46 
 60.34         40 
 60.36         38 
 60.38         38 
 60.4          39 
 60.42         30 
 60.44         30 
 60.46         39 
 60.48         45 
 60.5          43 
 60.52         39 
 60.54         39 
 60.56         26 
 60.58         37 
 60.6          34 
 60.62         30 
 60.64         35 
 60.66         40 
 60.68         29 
 60.7          38 
 60.72         37 
 60.74         43 
 60.76         33 
 60.78         25 
 60.8          33 
 60.82         36 
 60.84         34 
 60.86         41 
 60.88         27 
 60.9          35 
 60.92         34 
 60.94         48 
 60.96         45 
 60.98         41 
 61            33 
 61.02         42 
 61.04         23 
 61.06         36 
 61.08         44 
 61.1          44 
 61.12         36 
 61.14         33 
 61.16         25 
 61.18         28 
 61.2          48 
 61.22         37 
 61.24         36 
 61.26         26 
 61.28         37 
 61.3          34 
 61.32         38 
 61.34         43 
 61.36         36 
 61.38         39 
 61.4          32 
 61.42         37 
 61.44         40 
 61.46         50 
 61.48         36 
 61.5          47 
 61.52         39 
 61.54         34 
 61.56         43 
 61.58         39 
 61.6          29 
 61.62         43 
 61.64         38 
 61.66         42 
 61.68         33 
 61.7          44 
 61.72         32 
 61.74         43 
 61.76         49 
 61.78         39 
 61.8          53 
 61.82         37 
 61.84         44 
 61.86         49 
 61.88         41 
 61.9          51 
 61.92         46 
 61.94         43 
 61.96         41 
 61.98         52 
 62            53 
 62.02         56 
 62.04         53 
 62.06         54 
 62.08         52 
 62.1          48 
 62.12         51 
 62.14         73 
 62.16         68 
 62.18         64 
 62.2          68 
 62.22         69 
 62.24         74 
 62.26         71 
 62.28         76 
 62.3          104 
 62.32         84 
 62.34         84 
 62.36         93 
 62.38         123 
 62.4          97 
 62.42         110 
 62.44         137 
 62.46         125 
 62.48         154 
 62.5          166 
 62.52         155 
 62.54         194 
 62.56         219 
 62.58         212 
 62.6          279 
 62.62         282 
 62.64         302 
 62.66         349 
 62.68         373 
 62.7          478 
 62.72         515 
 62.74         596 
 62.76         647 
 62.78         842 
 62.8          891 
 62.82         1048 
 62.84         1099 
 62.86         1237 
 62.88         1300 
 62.9          1357 
 62.92         1233 
 62.94         1177 
 62.96         1051 
 62.98         1031 
 63            899 
 63.02         824 
 63.04         851 
 63.06         780 
 63.08         673 
 63.1          576 
 63.12         541 
 63.14         438 
 63.16         351 
 63.18         289 
 63.2          253 
 63.22         211 
 63.24         172 
 63.26         141 
 63.28         136 
 63.3          125 
 63.32         111 
 63.34         104 
 63.36         85 
 63.38         94 
 63.4          81 
 63.42         100 
 63.44         77 
 63.46         74 
 63.48         92 
 63.5          84 
 63.52         83 
 63.54         89 
 63.56         86 
 63.58         85 
 63.6          84 
 63.62         67 
 63.64         84 
 63.66         86 
 63.68         84 
 63.7          97 
 63.72         98 
 63.74         115 
 63.76         89 
 63.78         100 
 63.8          120 
 63.82         140 
 63.84         139 
 63.86         132 
 63.88         186 
 63.9          182 
 63.92         210 
 63.94         196 
 63.96         226 
 63.98         232 
 64            252 
 64.02         245 
 64.04         250 
 64.06         247 
 64.08         237 
 64.1          233 
 64.12         254 
 64.14         239 
 64.16         192 
 64.18         196 
 64.2          186 
 64.22         196 
 64.24         170 
 64.26         165 
 64.28         146 
 64.3          145 
 64.32         130 
 64.34         115 
 64.36         105 
 64.38         101 
 64.4          95 
 64.42         80 
 64.44         90 
 64.46         72 
 64.48         60 
 64.5          64 
 64.52         51 
 64.54         68 
 64.56         42 
 64.58         54 
 64.6          61 
 64.62         43 
 64.64         44 
 64.66         57 
 64.68         43 
 64.7          51 
 64.72         51 
 64.74         37 
 64.76         44 
 64.78         50 
 64.8          37 
 64.82         39 
 64.84         28 
 64.86         51 
 64.88         39 
 64.9          33 
 64.92         41 
 64.94         45 
 64.96         41 
 64.98         39 
 65            35 
 65.02         29 
 65.04         48 
 65.06         40 
 65.08         32 
 65.1          40 
 65.12         43 
 65.14         35 
 65.16         50 
 65.18         41 
 65.2          51 
 65.22         46 
 65.24         42 
 65.26         53 
 65.28         44 
 65.3          41 
 65.32         50 
 65.34         57 
 65.36         69 
 65.38         42 
 65.4          55 
 65.42         55 
 65.44         47 
 65.46         51 
 65.48         58 
 65.5          56 
 65.52         58 
 65.54         57 
 65.56         61 
 65.58         52 
 65.6          78 
 65.62         80 
 65.64         80 
 65.66         49 
 65.68         61 
 65.7          90 
 65.72         75 
 65.74         65 
 65.76         72 
 65.78         73 
 65.8          85 
 65.82         83 
 65.84         101 
 65.86         110 
 65.88         108 
 65.9          129 
 65.92         131 
 65.94         153 
 65.96         177 
 65.98         204 
 66            231 
 66.02         253 
 66.04         329 
 66.06         350 
 66.08         384 
 66.1          432 
 66.12         440 
 66.14         372 
 66.16         360 
 66.18         403 
 66.2          340 
 66.22         311 
 66.24         291 
 66.26         303 
 66.28         274 
 66.3          264 
 66.32         263 
 66.34         215 
 66.36         202 
 66.38         166 
 66.4          137 
 66.42         124 
 66.44         109 
 66.46         88 
 66.48         88 
 66.5          75 
 66.52         67 
 66.54         79 
 66.56         55 
 66.58         71 
 66.6          61 
 66.62         46 
 66.64         55 
 66.66         39 
 66.68         50 
 66.7          43 
 66.72         42 
 66.74         36 
 66.76         49 
 66.78         37 
 66.8          55 
 66.82         41 
 66.84         40 
 66.86         33 
 66.88         43 
 66.9          32 
 66.92         40 
 66.94         46 
 66.96         39 
 66.98         43 
 67            35 
 67.02         34 
 67.04         46 
 67.06         34 
 67.08         41 
 67.1          40 
 67.12         43 
 67.14         32 
 67.16         37 
 67.18         43 
 67.2          41 
 67.22         35 
 67.24         35 
 67.26         34 
 67.28         39 
 67.3          35 
 67.32         30 
 67.34         42 
 67.36         30 
 67.38         33 
 67.4          38 
 67.42         45 
 67.44         34 
 67.46         35 
 67.48         26 
 67.5          37 
 67.52         33 
 67.54         28 
 67.56         37 
 67.58         36 
 67.6          30 
 67.62         29 
 67.64         23 
 67.66         30 
 67.68         32 
 67.7          33 
 67.72         33 
 67.74         28 
 67.76         40 
 67.78         37 
 67.8          33 
 67.82         40 
 67.84         34 
 67.86         46 
 67.88         33 
 67.9          39 
 67.92         36 
 67.94         34 
 67.96         44 
 67.98         36 
 68            34 
 68.02         37 
 68.04         43 
 68.06         31 
 68.08         35 
 68.1          36 
 68.12         41 
 68.14         29 
 68.16         35 
 68.18         51 
 68.2          34 
 68.22         51 
 68.24         36 
 68.26         56 
 68.28         48 
 68.3          48 
 68.32         49 
 68.34         42 
 68.36         51 
 68.38         44 
 68.4          59 
 68.42         53 
 68.44         63 
 68.46         56 
 68.48         79 
 68.5          84 
 68.52         69 
 68.54         79 
 68.56         87 
 68.58         81 
 68.6          107 
 68.62         103 
 68.64         117 
 68.66         135 
 68.68         161 
 68.7          159 
 68.72         169 
 68.74         174 
 68.76         197 
 68.78         230 
 68.8          243 
 68.82         272 
 68.84         301 
 68.86         339 
 68.88         341 
 68.9          368 
 68.92         357 
 68.94         425 
 68.96         385 
 68.98         395 
 69            421 
 69.02         395 
 69.04         445 
 69.06         369 
 69.08         373 
 69.1          363 
 69.12         368 
 69.14         324 
 69.16         291 
 69.18         276 
 69.2          261 
 69.22         220 
 69.24         248 
 69.26         218 
 69.28         198 
 69.3          173 
 69.32         150 
 69.34         169 
 69.36         144 
 69.38         135 
 69.4          113 
 69.42         115 
 69.44         95 
 69.46         118 
 69.48         95 
 69.5          88 
 69.52         107 
 69.54         101 
 69.56         112 
 69.58         108 
 69.6          101 
 69.62         99 
 69.64         128 
 69.66         141 
 69.68         139 
 69.7          153 
 69.72         136 
 69.74         166 
 69.76         184 
 69.78         150 
 69.8          188 
 69.82         143 
 69.84         163 
 69.86         175 
 69.88         128 
 69.9          126 
 69.92         146 
 69.94         117 
 69.96         115 
 69.98         111 
 70            111 
 70.02         106 
 70.04         92 
 70.06         79 
 70.08         61 
 70.1          83 
 70.12         61 
 70.14         65 
 70.16         57 
 70.18         46 
 70.2          56 
 70.22         48 
 70.24         46 
 70.26         43 
 70.28         43 
 70.3          39 
 70.32         38 
 70.34         36 
 70.36         43 
 70.38         41 
 70.4          44 
 70.42         34 
 70.44         39 
 70.46         36 
 70.48         36 
 70.5          30 
 70.52         44 
 70.54         38 
 70.56         38 
 70.58         38 
 70.6          34 
 70.62         25 
 70.64         29 
 70.66         38 
 70.68         31 
 70.7          22 
 70.72         38 
 70.74         43 
 70.76         27 
 70.78         27 
 70.8          27 
 70.82         36 
 70.84         22 
 70.86         28 
 70.88         28 
 70.9          22 
 70.92         32 
 70.94         31 
 70.96         29 
 70.98         34 
 71            27 
 71.02         27 
 71.04         27 
 71.06         27 
 71.08         28 
 71.1          33 
 71.12         28 
 71.14         34 
 71.16         26 
 71.18         31 
 71.2          29 
 71.22         26 
 71.24         27 
 71.26         26 
 71.28         24 
 71.3          22 
 71.32         36 
 71.34         35 
 71.36         24 
 71.38         30 
 71.4          24 
 71.42         24 
 71.44         23 
 71.46         26 
 71.48         25 
 71.5          19 
 71.52         26 
 71.54         34 
 71.56         21 
 71.58         25 
 71.6          24 
 71.62         31 
 71.64         31 
 71.66         26 
 71.68         34 
 71.7          32 
 71.72         26 
 71.74         30 
 71.76         27 
 71.78         31 
 71.8          24 
 71.82         26 
 71.84         36 
 71.86         29 
 71.88         27 
 71.9          25 
 71.92         22 
 71.94         37 
 71.96         27 
 71.98         35 
 72            23 
 72.02         24 
 72.04         25 
 72.06         33 
 72.08         40 
 72.1          27 
 72.12         32 
 72.14         37 
 72.16         34 
 72.18         41 
 72.2          33 
 72.22         40 
 72.24         45 
 72.26         30 
 72.28         44 
 72.3          43 
 72.32         54 
 72.34         39 
 72.36         43 
 72.38         50 
 72.4          57 
 72.42         44 
 72.44         40 
 72.46         59 
 72.48         63 
 72.5          42 
 72.52         39 
 72.54         52 
 72.56         53 
 72.58         41 
 72.6          46 
 72.62         29 
 72.64         43 
 72.66         34 
 72.68         29 
 72.7          35 
 72.72         48 
 72.74         34 
 72.76         34 
 72.78         26 
 72.8          36 
 72.82         25 
 72.84         33 
 72.86         31 
 72.88         23 
 72.9          34 
 72.92         18 
 72.94         30 
 72.96         38 
 72.98         29 
 73            17 
 73.02         27 
 73.04         38 
 73.06         26 
 73.08         30 
 73.1          27 
 73.12         21 
 73.14         24 
 73.16         29 
 73.18         30 
 73.2          26 
 73.22         24 
 73.24         27 
 73.26         35 
 73.28         22 
 73.3          26 
 73.32         26 
 73.34         23 
 73.36         22 
 73.38         33 
 73.4          36 
 73.42         28 
 73.44         29 
 73.46         35 
 73.48         30 
 73.5          29 
 73.52         25 
 73.54         37 
 73.56         33 
 73.58         24 
 73.6          31 
 73.62         31 
 73.64         33 
 73.66         24 
 73.68         33 
 73.7          25 
 73.72         30 
 73.74         30 
 73.76         25 
 73.78         33 
 73.8          29 
 73.82         24 
 73.84         27 
 73.86         40 
 73.88         40 
 73.9          31 
 73.92         32 
 73.93999      39 
 73.96         29 
 73.98         27 
 74            50 
 74.02         31 
 74.04         38 
 74.06         31 
 74.08         29 
 74.1          55 
 74.12         38 
 74.14         43 
 74.16         48 
 74.18         58 
 74.2          67 
 74.22         66 
 74.24         67 
 74.26         78 
 74.28         89 
 74.3          96 
 74.32         109 
 74.34         149 
 74.36         134 
 74.38         140 
 74.4          154 
 74.42         170 
 74.43999      142 
 74.46         149 
 74.48         132 
 74.5          126 
 74.52         125 
 74.54         125 
 74.56         120 
 74.58         98 
 74.6          97 
 74.62         85 
 74.64         87 
 74.66         110 
 74.68         82 
 74.7          76 
 74.72         63 
 74.74         65 
 74.76         57 
 74.78         46 
 74.8          35 
 74.82         58 
 74.84         45 
 74.86         38 
 74.88         39 
 74.9          34 
 74.92         44 
 74.93999      41 
 74.96         43 
 74.98         29 
 75            46 
