LTO P2 900°C 30min  Original Data
 3151 
 12            491 
 12.02         442 
 12.04         460 
 12.06         498 
 12.08         497 
 12.1          482 
 12.12         506 
 12.14         425 
 12.16         498 
 12.18         441 
 12.2          498 
 12.22         471 
 12.24         492 
 12.26         459 
 12.28         510 
 12.3          458 
 12.32         490 
 12.34         472 
 12.36         478 
 12.38         486 
 12.4          480 
 12.42         505 
 12.44         441 
 12.46         483 
 12.48         438 
 12.5          491 
 12.52         463 
 12.54         507 
 12.56         482 
 12.58         499 
 12.6          487 
 12.62         501 
 12.64         505 
 12.66         451 
 12.68         483 
 12.7          497 
 12.72         489 
 12.74         468 
 12.76         455 
 12.78         459 
 12.8          490 
 12.82         467 
 12.84         464 
 12.86         461 
 12.88         429 
 12.9          450 
 12.92         449 
 12.94         446 
 12.96         409 
 12.98         452 
 13            439 
 13.02         472 
 13.04         415 
 13.06         492 
 13.08         432 
 13.1          492 
 13.12         422 
 13.14         452 
 13.16         407 
 13.18         465 
 13.2          476 
 13.22         437 
 13.24         476 
 13.26         432 
 13.28         444 
 13.3          434 
 13.32         419 
 13.34         451 
 13.36         419 
 13.38         389 
 13.4          432 
 13.42         420 
 13.44         415 
 13.46         388 
 13.48         383 
 13.5          410 
 13.52         392 
 13.54         395 
 13.56         376 
 13.58         449 
 13.6          379 
 13.62         427 
 13.64         384 
 13.66         421 
 13.68         400 
 13.7          401 
 13.72         386 
 13.74         379 
 13.76         384 
 13.78         361 
 13.8          362 
 13.82         368 
 13.84         394 
 13.86         365 
 13.88         356 
 13.9          356 
 13.92         397 
 13.94         351 
 13.96         377 
 13.98         346 
 14            350 
 14.02         338 
 14.04         355 
 14.06         315 
 14.08         375 
 14.1          341 
 14.12         303 
 14.14         327 
 14.16         304 
 14.18         316 
 14.2          310 
 14.22         328 
 14.24         324 
 14.26         310 
 14.28         327 
 14.3          335 
 14.32         283 
 14.34         308 
 14.36         313 
 14.38         310 
 14.4          314 
 14.42         321 
 14.44         325 
 14.46         301 
 14.48         309 
 14.5          284 
 14.52         321 
 14.54         271 
 14.56         318 
 14.58         308 
 14.6          305 
 14.62         249 
 14.64         278 
 14.66         278 
 14.68         275 
 14.7          277 
 14.72         252 
 14.74         265 
 14.76         273 
 14.78         285 
 14.8          273 
 14.82         273 
 14.84         272 
 14.86         317 
 14.88         261 
 14.9          271 
 14.92         281 
 14.94         273 
 14.96         245 
 14.98         253 
 15            261 
 15.02         237 
 15.04         264 
 15.06         216 
 15.08         253 
 15.1          251 
 15.12         246 
 15.14         260 
 15.16         221 
 15.18         239 
 15.2          260 
 15.22         219 
 15.24         234 
 15.26         242 
 15.28         215 
 15.3          232 
 15.32         247 
 15.34         231 
 15.36         209 
 15.38         202 
 15.4          240 
 15.42         247 
 15.44         187 
 15.46         197 
 15.48         248 
 15.5          179 
 15.52         233 
 15.54         194 
 15.56         199 
 15.58         231 
 15.6          210 
 15.62         191 
 15.64         215 
 15.66         201 
 15.68         214 
 15.7          204 
 15.72         200 
 15.74         211 
 15.76         214 
 15.78         197 
 15.8          218 
 15.82         216 
 15.84         179 
 15.86         192 
 15.88         194 
 15.9          184 
 15.92         183 
 15.94         203 
 15.96         198 
 15.98         213 
 16            180 
 16.02         176 
 16.04         174 
 16.06         171 
 16.08         157 
 16.1          191 
 16.12         164 
 16.14         182 
 16.16         202 
 16.18         189 
 16.2          192 
 16.22         187 
 16.24         189 
 16.26         195 
 16.28         178 
 16.3          181 
 16.32         167 
 16.34         190 
 16.36         188 
 16.38         179 
 16.4          179 
 16.42         161 
 16.44         152 
 16.46         174 
 16.48         185 
 16.5          196 
 16.52         146 
 16.54         179 
 16.56         169 
 16.58         164 
 16.6          157 
 16.62         163 
 16.64         169 
 16.66         164 
 16.68         187 
 16.7          186 
 16.72         149 
 16.74         170 
 16.76         154 
 16.78         160 
 16.8          168 
 16.82         174 
 16.84         173 
 16.86         148 
 16.88         160 
 16.9          155 
 16.92         172 
 16.94         142 
 16.96         179 
 16.98         179 
 17            152 
 17.02         141 
 17.04         137 
 17.06         142 
 17.08         150 
 17.1          147 
 17.12         177 
 17.14         159 
 17.16         166 
 17.18         157 
 17.2          162 
 17.22         145 
 17.24         159 
 17.26         151 
 17.28         149 
 17.3          177 
 17.32         176 
 17.34         147 
 17.36         118 
 17.38         135 
 17.4          168 
 17.42         148 
 17.44         144 
 17.46         146 
 17.48         126 
 17.5          151 
 17.52         142 
 17.54         160 
 17.56         156 
 17.58         144 
 17.6          161 
 17.62         157 
 17.64         143 
 17.66         152 
 17.68         164 
 17.7          167 
 17.72         154 
 17.74         134 
 17.76         134 
 17.78         151 
 17.8          133 
 17.82         121 
 17.84         168 
 17.86         162 
 17.88         122 
 17.9          148 
 17.92         164 
 17.94         129 
 17.96         136 
 17.98         156 
 18            172 
 18.02         150 
 18.04         166 
 18.06         149 
 18.08         173 
 18.1          162 
 18.12         216 
 18.14         244 
 18.16         207 
 18.18         250 
 18.2          318 
 18.22         398 
 18.24         451 
 18.26         589 
 18.28         798 
 18.3          1029 
 18.32         1393 
 18.34         1895 
 18.36         2417 
 18.38         2869 
 18.4          3028 
 18.42         2678 
 18.44         2380 
 18.46         1734 
 18.48         1156 
 18.5          708 
 18.52         450 
 18.54         292 
 18.56         243 
 18.58         197 
 18.6          197 
 18.62         158 
 18.64         146 
 18.66         140 
 18.68         144 
 18.7          132 
 18.72         146 
 18.74         135 
 18.76         116 
 18.78         137 
 18.8          125 
 18.82         122 
 18.84         142 
 18.86         122 
 18.88         136 
 18.9          109 
 18.92         130 
 18.94         118 
 18.96         128 
 18.98         127 
 19            114 
 19.02         108 
 19.04         122 
 19.06         135 
 19.08         109 
 19.1          125 
 19.12         116 
 19.14         119 
 19.16         106 
 19.18         119 
 19.2          117 
 19.22         140 
 19.24         118 
 19.26         135 
 19.28         127 
 19.3          100 
 19.32         112 
 19.34         116 
 19.36         116 
 19.38         108 
 19.4          98 
 19.42         106 
 19.44         130 
 19.46         107 
 19.48         113 
 19.5          113 
 19.52         109 
 19.54         109 
 19.56         120 
 19.58         137 
 19.6          117 
 19.62         90 
 19.64         86 
 19.66         121 
 19.68         84 
 19.7          116 
 19.72         103 
 19.74         126 
 19.76         119 
 19.78         115 
 19.8          116 
 19.82         106 
 19.84         102 
 19.86         112 
 19.88         105 
 19.9          90 
 19.92         111 
 19.94         96 
 19.96         97 
 19.98         122 
 20            116 
 20.02         117 
 20.04         106 
 20.06         83 
 20.08         115 
 20.1          118 
 20.12         110 
 20.14         110 
 20.16         128 
 20.18         93 
 20.2          111 
 20.22         101 
 20.24         113 
 20.26         102 
 20.28         112 
 20.3          120 
 20.32         109 
 20.34         101 
 20.36         95 
 20.38         100 
 20.4          118 
 20.42         112 
 20.44         112 
 20.46         106 
 20.48         97 
 20.5          98 
 20.52         91 
 20.54         103 
 20.56         110 
 20.58         89 
 20.6          110 
 20.62         83 
 20.64         79 
 20.66         98 
 20.68         77 
 20.7          110 
 20.72         100 
 20.74         70 
 20.76         102 
 20.78         99 
 20.8          91 
 20.82         92 
 20.84         85 
 20.86         95 
 20.88         103 
 20.9          96 
 20.92         109 
 20.94         110 
 20.96         96 
 20.98         106 
 21            93 
 21.02         79 
 21.04         105 
 21.06         95 
 21.08         92 
 21.1          81 
 21.12         90 
 21.14         92 
 21.16         112 
 21.18         91 
 21.2          83 
 21.22         93 
 21.24         104 
 21.26         99 
 21.28         89 
 21.3          106 
 21.32         90 
 21.34         83 
 21.36         84 
 21.38         99 
 21.4          101 
 21.42         93 
 21.44         101 
 21.46         97 
 21.48         95 
 21.5          108 
 21.52         74 
 21.54         107 
 21.56         94 
 21.58         95 
 21.6          96 
 21.62         97 
 21.64         83 
 21.66         79 
 21.68         91 
 21.7          96 
 21.72         109 
 21.74         106 
 21.76         84 
 21.78         85 
 21.8          79 
 21.82         87 
 21.84         84 
 21.86         83 
 21.88         96 
 21.9          101 
 21.92         88 
 21.94         94 
 21.96         87 
 21.98         93 
 22            91 
 22.02         101 
 22.04         93 
 22.06         90 
 22.08         108 
 22.1          86 
 22.12         82 
 22.14         98 
 22.16         102 
 22.18         83 
 22.2          82 
 22.22         99 
 22.24         99 
 22.26         109 
 22.28         88 
 22.3          92 
 22.32         92 
 22.34         88 
 22.36         98 
 22.38         104 
 22.4          78 
 22.42         87 
 22.44         85 
 22.46         104 
 22.48         92 
 22.5          78 
 22.52         73 
 22.54         93 
 22.56         85 
 22.58         86 
 22.6          91 
 22.62         87 
 22.64         81 
 22.66         85 
 22.68         83 
 22.7          85 
 22.72         83 
 22.74         96 
 22.76         87 
 22.78         85 
 22.8          90 
 22.82         76 
 22.84         96 
 22.86         91 
 22.88         88 
 22.9          83 
 22.92         81 
 22.94         67 
 22.96         75 
 22.98         87 
 23            78 
 23.02         85 
 23.04         75 
 23.06         84 
 23.08         81 
 23.1          87 
 23.12         90 
 23.14         78 
 23.16         86 
 23.18         78 
 23.2          77 
 23.22         78 
 23.24         84 
 23.26         69 
 23.28         75 
 23.3          79 
 23.32         87 
 23.34         76 
 23.36         76 
 23.38         79 
 23.4          83 
 23.42         67 
 23.44         99 
 23.46         84 
 23.48         79 
 23.5          81 
 23.52         83 
 23.54         95 
 23.56         94 
 23.58         88 
 23.6          77 
 23.62         90 
 23.64         86 
 23.66         72 
 23.68         77 
 23.7          90 
 23.72         79 
 23.74         90 
 23.76         86 
 23.78         95 
 23.8          88 
 23.82         70 
 23.84         78 
 23.86         89 
 23.88         84 
 23.9          73 
 23.92         70 
 23.94         91 
 23.96         84 
 23.98         90 
 24            73 
 24.02         99 
 24.04         75 
 24.06         95 
 24.08         72 
 24.1          82 
 24.12         75 
 24.14         76 
 24.16         81 
 24.18         76 
 24.2          78 
 24.22         76 
 24.24         65 
 24.26         79 
 24.28         76 
 24.3          78 
 24.32         82 
 24.34         52 
 24.36         78 
 24.38         74 
 24.4          79 
 24.42         83 
 24.44         79 
 24.46         73 
 24.48         86 
 24.5          94 
 24.52         85 
 24.54         85 
 24.56         78 
 24.58         79 
 24.6          90 
 24.62         79 
 24.64         82 
 24.66         76 
 24.68         84 
 24.7          76 
 24.72         62 
 24.74         82 
 24.76         60 
 24.78         70 
 24.8          67 
 24.82         67 
 24.84         76 
 24.86         78 
 24.88         78 
 24.9          88 
 24.92         77 
 24.94         86 
 24.96         89 
 24.98         81 
 25            90 
 25.02         64 
 25.04         71 
 25.06         69 
 25.08         70 
 25.1          76 
 25.12         83 
 25.14         72 
 25.16         83 
 25.18         67 
 25.2          82 
 25.22         72 
 25.24         65 
 25.26         88 
 25.28         67 
 25.3          95 
 25.32         79 
 25.34         80 
 25.36         87 
 25.38         74 
 25.4          87 
 25.42         68 
 25.44         74 
 25.46         78 
 25.48         58 
 25.5          69 
 25.52         73 
 25.54         67 
 25.56         74 
 25.58         62 
 25.6          74 
 25.62         83 
 25.64         68 
 25.66         58 
 25.68         80 
 25.7          88 
 25.72         86 
 25.74         66 
 25.76         74 
 25.78         61 
 25.8          69 
 25.82         70 
 25.84         84 
 25.86         73 
 25.88         75 
 25.9          66 
 25.92         67 
 25.94         71 
 25.96         78 
 25.98         69 
 26            68 
 26.02         71 
 26.04         65 
 26.06         74 
 26.08         62 
 26.1          79 
 26.12         69 
 26.14         79 
 26.16         80 
 26.18         80 
 26.2          71 
 26.22         76 
 26.24         82 
 26.26         77 
 26.28         68 
 26.3          84 
 26.32         84 
 26.34         72 
 26.36         66 
 26.38         64 
 26.4          75 
 26.42         91 
 26.44         73 
 26.46         72 
 26.48         58 
 26.5          73 
 26.52         76 
 26.54         75 
 26.56         79 
 26.58         72 
 26.6          76 
 26.62         72 
 26.64         87 
 26.66         63 
 26.68         64 
 26.7          65 
 26.72         60 
 26.74         80 
 26.76         77 
 26.78         82 
 26.8          65 
 26.82         72 
 26.84         84 
 26.86         71 
 26.88         72 
 26.9          60 
 26.92         68 
 26.94         69 
 26.96         76 
 26.98         65 
 27            69 
 27.02         70 
 27.04         58 
 27.06         67 
 27.08         55 
 27.1          79 
 27.12         73 
 27.14         68 
 27.16         65 
 27.18         75 
 27.2          68 
 27.22         80 
 27.24         52 
 27.26         71 
 27.28         53 
 27.3          66 
 27.32         66 
 27.34         85 
 27.36         94 
 27.38         94 
 27.4          91 
 27.42         105 
 27.44         123 
 27.46         136 
 27.48         131 
 27.5          139 
 27.52         128 
 27.54         148 
 27.56         111 
 27.58         89 
 27.6          77 
 27.62         74 
 27.64         71 
 27.66         71 
 27.68         48 
 27.7          77 
 27.72         63 
 27.74         59 
 27.76         73 
 27.78         71 
 27.8          67 
 27.82         67 
 27.84         58 
 27.86         72 
 27.88         71 
 27.9          50 
 27.92         66 
 27.94         74 
 27.96         73 
 27.98         67 
 28            67 
 28.02         56 
 28.04         55 
 28.06         53 
 28.08         71 
 28.1          60 
 28.12         59 
 28.14         60 
 28.16         54 
 28.18         50 
 28.2          71 
 28.22         59 
 28.24         65 
 28.26         65 
 28.28         63 
 28.3          69 
 28.32         66 
 28.34         61 
 28.36         69 
 28.38         64 
 28.4          60 
 28.42         72 
 28.44         60 
 28.46         69 
 28.48         62 
 28.5          72 
 28.52         55 
 28.54         53 
 28.56         57 
 28.58         58 
 28.6          58 
 28.62         56 
 28.64         62 
 28.66         59 
 28.68         59 
 28.7          61 
 28.72         45 
 28.74         60 
 28.76         62 
 28.78         61 
 28.8          62 
 28.82         54 
 28.84         43 
 28.86         56 
 28.88         56 
 28.9          64 
 28.92         46 
 28.94         73 
 28.96         56 
 28.98         57 
 29            47 
 29.02         57 
 29.04         54 
 29.06         50 
 29.08         60 
 29.1          48 
 29.12         41 
 29.14         56 
 29.16         60 
 29.18         61 
 29.2          52 
 29.22         59 
 29.24         51 
 29.26         66 
 29.28         46 
 29.3          48 
 29.32         54 
 29.34         63 
 29.36         42 
 29.38         52 
 29.4          50 
 29.42         56 
 29.44         61 
 29.46         51 
 29.48         54 
 29.5          62 
 29.52         72 
 29.54         51 
 29.56         55 
 29.58         52 
 29.6          55 
 29.62         53 
 29.64         53 
 29.66         62 
 29.68         44 
 29.7          44 
 29.72         67 
 29.74         42 
 29.76         49 
 29.78         54 
 29.8          47 
 29.82         61 
 29.84         48 
 29.86         46 
 29.88         59 
 29.9          58 
 29.92         35 
 29.94         44 
 29.96         38 
 29.98         57 
 30            55 
 30.02         57 
 30.04         58 
 30.06         45 
 30.08         60 
 30.1          50 
 30.12         53 
 30.14         66 
 30.16         63 
 30.18         65 
 30.2          88 
 30.22         86 
 30.24         91 
 30.26         111 
 30.28         95 
 30.3          97 
 30.32         84 
 30.34         58 
 30.36         65 
 30.38         54 
 30.4          56 
 30.42         44 
 30.44         45 
 30.46         58 
 30.48         57 
 30.5          39 
 30.52         64 
 30.54         56 
 30.56         41 
 30.58         49 
 30.6          57 
 30.62         35 
 30.64         64 
 30.66         46 
 30.68         38 
 30.7          52 
 30.72         45 
 30.74         54 
 30.76         63 
 30.78         43 
 30.8          45 
 30.82         43 
 30.84         70 
 30.86         43 
 30.88         57 
 30.9          55 
 30.92         49 
 30.94         44 
 30.96         59 
 30.98         46 
 31            57 
 31.02         44 
 31.04         48 
 31.06         41 
 31.08         49 
 31.1          43 
 31.12         39 
 31.14         51 
 31.16         38 
 31.18         51 
 31.2          53 
 31.22         49 
 31.24         48 
 31.26         55 
 31.28         43 
 31.3          53 
 31.32         33 
 31.34         51 
 31.36         50 
 31.38         52 
 31.4          44 
 31.42         44 
 31.44         49 
 31.46         44 
 31.48         41 
 31.5          49 
 31.52         38 
 31.54         36 
 31.56         36 
 31.58         40 
 31.6          53 
 31.62         49 
 31.64         44 
 31.66         39 
 31.68         45 
 31.7          43 
 31.72         40 
 31.74         50 
 31.76         47 
 31.78         54 
 31.8          39 
 31.82         37 
 31.84         40 
 31.86         47 
 31.88         45 
 31.9          43 
 31.92         41 
 31.94         39 
 31.96         43 
 31.98         46 
 32            52 
 32.02         47 
 32.04         46 
 32.06         35 
 32.08         42 
 32.1          54 
 32.12         34 
 32.14         47 
 32.16         47 
 32.18         46 
 32.2          53 
 32.22         49 
 32.24         51 
 32.26         46 
 32.28         50 
 32.3          31 
 32.32         53 
 32.34         39 
 32.36         49 
 32.38         37 
 32.4          37 
 32.42         47 
 32.44         40 
 32.46         43 
 32.48         39 
 32.5          53 
 32.52         45 
 32.54         33 
 32.56         62 
 32.58         34 
 32.6          44 
 32.62         39 
 32.64         50 
 32.66         39 
 32.68         49 
 32.7          45 
 32.72         39 
 32.74         47 
 32.76         39 
 32.78         37 
 32.8          38 
 32.82         42 
 32.84         42 
 32.86         32 
 32.88         38 
 32.9          36 
 32.92         43 
 32.94         40 
 32.96         42 
 32.98         52 
 33            38 
 33.02         44 
 33.04         38 
 33.06         43 
 33.08         42 
 33.1          35 
 33.12         43 
 33.14         42 
 33.16         35 
 33.18         52 
 33.2          37 
 33.22         28 
 33.24         44 
 33.26         33 
 33.28         38 
 33.3          42 
 33.32         41 
 33.34         50 
 33.36         44 
 33.38         34 
 33.4          38 
 33.42         46 
 33.44         44 
 33.46         45 
 33.48         21 
 33.5          39 
 33.52         46 
 33.54         39 
 33.56         36 
 33.58         39 
 33.6          34 
 33.62         38 
 33.64         26 
 33.66         44 
 33.68         37 
 33.7          37 
 33.72         44 
 33.74         38 
 33.76         43 
 33.78         36 
 33.8          38 
 33.82         37 
 33.84         38 
 33.86         35 
 33.88         32 
 33.9          35 
 33.92         49 
 33.94         41 
 33.96         30 
 33.98         33 
 34            40 
 34.02         38 
 34.04         30 
 34.06         28 
 34.08         40 
 34.1          42 
 34.12         36 
 34.14         39 
 34.16         37 
 34.18         53 
 34.2          34 
 34.22         42 
 34.24         37 
 34.26         41 
 34.28         36 
 34.3          32 
 34.32         29 
 34.34         40 
 34.36         36 
 34.38         34 
 34.4          41 
 34.42         42 
 34.44         35 
 34.46         33 
 34.48         35 
 34.5          47 
 34.52         42 
 34.54         41 
 34.56         38 
 34.58         29 
 34.6          35 
 34.62         24 
 34.64         33 
 34.66         31 
 34.68         36 
 34.7          41 
 34.72         44 
 34.74         37 
 34.76         30 
 34.78         33 
 34.8          47 
 34.82         34 
 34.84         41 
 34.86         34 
 34.88         32 
 34.9          51 
 34.92         38 
 34.94         44 
 34.96         39 
 34.98         40 
 35            36 
 35.02         36 
 35.04         41 
 35.06         54 
 35.08         44 
 35.1          51 
 35.12         60 
 35.14         56 
 35.16         47 
 35.18         52 
 35.2          48 
 35.22         49 
 35.24         51 
 35.26         69 
 35.28         67 
 35.3          69 
 35.32         64 
 35.34         85 
 35.36         61 
 35.38         90 
 35.4          107 
 35.42         129 
 35.44         132 
 35.46         170 
 35.48         250 
 35.5          348 
 35.52         590 
 35.54         847 
 35.56         1285 
 35.58         1691 
 35.6          2060 
 35.62         2332 
 35.64         2095 
 35.66         2044 
 35.68         1694 
 35.7          1355 
 35.72         1033 
 35.74         805 
 35.76         603 
 35.78         351 
 35.8          206 
 35.82         132 
 35.84         104 
 35.86         81 
 35.88         95 
 35.9          76 
 35.92         66 
 35.94         59 
 35.96         48 
 35.98         75 
 36            65 
 36.02         63 
 36.04         69 
 36.06         93 
 36.08         89 
 36.1          86 
 36.12         84 
 36.14         68 
 36.16         88 
 36.18         71 
 36.2          61 
 36.22         71 
 36.24         58 
 36.26         50 
 36.28         47 
 36.3          41 
 36.32         36 
 36.34         28 
 36.36         32 
 36.38         60 
 36.4          35 
 36.42         31 
 36.44         31 
 36.46         30 
 36.48         34 
 36.5          36 
 36.52         34 
 36.54         32 
 36.56         31 
 36.58         25 
 36.6          39 
 36.62         25 
 36.64         29 
 36.66         36 
 36.68         33 
 36.7          31 
 36.72         30 
 36.74         35 
 36.76         37 
 36.78         32 
 36.8          35 
 36.82         35 
 36.84         33 
 36.86         37 
 36.88         36 
 36.9          38 
 36.92         43 
 36.94         37 
 36.96         37 
 36.98         32 
 37            37 
 37.02         26 
 37.04         30 
 37.06         32 
 37.08         42 
 37.1          29 
 37.12         34 
 37.14         52 
 37.16         59 
 37.18         72 
 37.2          91 
 37.22         109 
 37.24         121 
 37.26         139 
 37.28         127 
 37.3          116 
 37.32         109 
 37.34         89 
 37.36         87 
 37.38         76 
 37.4          44 
 37.42         41 
 37.44         45 
 37.46         35 
 37.48         44 
 37.5          35 
 37.52         28 
 37.54         34 
 37.56         29 
 37.58         27 
 37.6          38 
 37.62         23 
 37.64         28 
 37.66         31 
 37.68         31 
 37.7          28 
 37.72         26 
 37.74         39 
 37.76         33 
 37.78         29 
 37.8          23 
 37.82         31 
 37.84         21 
 37.86         32 
 37.88         32 
 37.9          27 
 37.92         33 
 37.94         26 
 37.96         28 
 37.98         29 
 38            32 
 38.02         24 
 38.04         28 
 38.06         27 
 38.08         29 
 38.1          35 
 38.12         34 
 38.14         27 
 38.16         28 
 38.18         37 
 38.2          33 
 38.22         26 
 38.24         23 
 38.26         25 
 38.28         28 
 38.3          29 
 38.32         28 
 38.34         23 
 38.36         33 
 38.38         34 
 38.4          21 
 38.42         25 
 38.44         39 
 38.46         24 
 38.48         35 
 38.5          28 
 38.52         40 
 38.54         24 
 38.56         21 
 38.58         30 
 38.6          26 
 38.62         22 
 38.64         24 
 38.66         35 
 38.68         37 
 38.7          21 
 38.72         25 
 38.74         28 
 38.76         26 
 38.78         27 
 38.8          34 
 38.82         20 
 38.84         36 
 38.86         34 
 38.88         26 
 38.9          30 
 38.92         28 
 38.94         29 
 38.96         28 
 38.98         25 
 39            24 
 39.02         25 
 39.04         33 
 39.06         39 
 39.08         29 
 39.1          36 
 39.12         32 
 39.14         21 
 39.16         33 
 39.18         35 
 39.2          34 
 39.22         27 
 39.24         29 
 39.26         30 
 39.28         30 
 39.3          32 
 39.32         39 
 39.34         34 
 39.36         35 
 39.38         28 
 39.4          37 
 39.42         31 
 39.44         25 
 39.46         30 
 39.48         33 
 39.5          30 
 39.52         27 
 39.54         25 
 39.56         24 
 39.58         38 
 39.6          32 
 39.62         26 
 39.64         28 
 39.66         21 
 39.68         23 
 39.7          21 
 39.72         22 
 39.74         25 
 39.76         31 
 39.78         25 
 39.8          31 
 39.82         31 
 39.84         20 
 39.86         36 
 39.88         25 
 39.9          28 
 39.92         23 
 39.94         33 
 39.96         35 
 39.98         29 
 40            27 
 40.02         24 
 40.04         28 
 40.06         27 
 40.08         36 
 40.1          22 
 40.12         21 
 40.14         29 
 40.16         23 
 40.18         26 
 40.2          24 
 40.22         31 
 40.24         16 
 40.26         29 
 40.28         34 
 40.3          24 
 40.32         31 
 40.34         26 
 40.36         29 
 40.38         30 
 40.4          25 
 40.42         36 
 40.44         25 
 40.46         31 
 40.48         33 
 40.5          21 
 40.52         25 
 40.54         21 
 40.56         24 
 40.58         25 
 40.6          17 
 40.62         38 
 40.64         32 
 40.66         22 
 40.68         15 
 40.7          23 
 40.72         28 
 40.74         25 
 40.76         33 
 40.78         30 
 40.8          23 
 40.82         40 
 40.84         31 
 40.86         31 
 40.88         28 
 40.9          26 
 40.92         21 
 40.94         26 
 40.96         30 
 40.98         25 
 41            25 
 41.02         32 
 41.04         39 
 41.06         27 
 41.08         40 
 41.1          20 
 41.12         34 
 41.14         27 
 41.16         32 
 41.18         32 
 41.2          34 
 41.22         39 
 41.24         41 
 41.26         44 
 41.28         44 
 41.3          27 
 41.32         39 
 41.34         48 
 41.36         24 
 41.38         38 
 41.4          41 
 41.42         31 
 41.44         23 
 41.46         31 
 41.48         26 
 41.5          43 
 41.52         28 
 41.54         29 
 41.56         23 
 41.58         24 
 41.6          27 
 41.62         30 
 41.64         30 
 41.66         36 
 41.68         28 
 41.7          30 
 41.72         18 
 41.74         28 
 41.76         28 
 41.78         24 
 41.8          34 
 41.82         26 
 41.84         19 
 41.86         23 
 41.88         31 
 41.9          35 
 41.92         28 
 41.94         39 
 41.96         31 
 41.98         18 
 42            21 
 42.02         33 
 42.04         29 
 42.06         28 
 42.08         33 
 42.1          18 
 42.12         28 
 42.14         39 
 42.16         23 
 42.18         35 
 42.2          25 
 42.22         31 
 42.24         31 
 42.26         28 
 42.28         38 
 42.3          27 
 42.32         20 
 42.34         30 
 42.36         29 
 42.38         29 
 42.4          30 
 42.42         30 
 42.44         29 
 42.46         34 
 42.48         35 
 42.5          40 
 42.52         19 
 42.54         32 
 42.56         30 
 42.58         29 
 42.6          35 
 42.62         36 
 42.64         31 
 42.66         32 
 42.68         37 
 42.7          46 
 42.72         50 
 42.74         41 
 42.76         38 
 42.78         44 
 42.8          43 
 42.82         49 
 42.84         62 
 42.86         53 
 42.88         75 
 42.9          64 
 42.92         66 
 42.94         68 
 42.96         75 
 42.98         121 
 43            88 
 43.02         135 
 43.04         138 
 43.06         189 
 43.08         209 
 43.1          199 
 43.12         314 
 43.14         369 
 43.16         516 
 43.18         837 
 43.2          1307 
 43.22         1960 
 43.24         2632 
 43.26         3196 
 43.28         3642 
 43.3          3512 
 43.32         3429 
 43.34         2938 
 43.36         2393 
 43.38         2149 
 43.4          1939 
 43.42         1677 
 43.44         1250 
 43.46         771 
 43.48         514 
 43.5          310 
 43.52         235 
 43.54         187 
 43.56         150 
 43.58         141 
 43.6          113 
 43.62         100 
 43.64         95 
 43.66         85 
 43.68         70 
 43.7          90 
 43.72         83 
 43.74         76 
 43.76         68 
 43.78         57 
 43.8          53 
 43.82         48 
 43.84         47 
 43.86         51 
 43.88         55 
 43.9          43 
 43.92         46 
 43.94         52 
 43.96         57 
 43.98         49 
 44            31 
 44.02         31 
 44.04         40 
 44.06         46 
 44.08         45 
 44.1          42 
 44.12         43 
 44.14         53 
 44.16         31 
 44.18         38 
 44.2          40 
 44.22         35 
 44.24         29 
 44.26         39 
 44.28         28 
 44.3          24 
 44.32         24 
 44.34         32 
 44.36         34 
 44.38         29 
 44.4          25 
 44.42         39 
 44.44         24 
 44.46         25 
 44.48         30 
 44.5          35 
 44.52         26 
 44.54         23 
 44.56         23 
 44.58         26 
 44.6          23 
 44.62         26 
 44.64         26 
 44.66         25 
 44.68         23 
 44.7          19 
 44.72         34 
 44.74         22 
 44.76         33 
 44.78         20 
 44.8          24 
 44.82         24 
 44.84         29 
 44.86         21 
 44.88         26 
 44.9          16 
 44.92         20 
 44.94         20 
 44.96         20 
 44.98         21 
 45            29 
 45.02         28 
 45.04         28 
 45.06         26 
 45.08         17 
 45.1          25 
 45.12         24 
 45.14         29 
 45.16         30 
 45.18         22 
 45.2          30 
 45.22         22 
 45.24         23 
 45.26         20 
 45.28         33 
 45.3          24 
 45.32         21 
 45.34         25 
 45.36         22 
 45.38         22 
 45.4          21 
 45.42         19 
 45.44         26 
 45.46         30 
 45.48         22 
 45.5          43 
 45.52         30 
 45.54         26 
 45.56         32 
 45.58         16 
 45.6          20 
 45.62         24 
 45.64         20 
 45.66         21 
 45.68         27 
 45.7          28 
 45.72         24 
 45.74         26 
 45.76         23 
 45.78         27 
 45.8          22 
 45.82         23 
 45.84         26 
 45.86         29 
 45.88         24 
 45.9          29 
 45.92         28 
 45.94         23 
 45.96         21 
 45.98         18 
 46            25 
 46.02         26 
 46.04         27 
 46.06         31 
 46.08         27 
 46.1          26 
 46.12         28 
 46.14         19 
 46.16         24 
 46.18         19 
 46.2          23 
 46.22         25 
 46.24         22 
 46.26         14 
 46.28         22 
 46.3          18 
 46.32         22 
 46.34         25 
 46.36         20 
 46.38         26 
 46.4          22 
 46.42         21 
 46.44         23 
 46.46         24 
 46.48         23 
 46.5          28 
 46.52         25 
 46.54         26 
 46.56         25 
 46.58         26 
 46.6          28 
 46.62         24 
 46.64         23 
 46.66         30 
 46.68         33 
 46.7          29 
 46.72         15 
 46.74         20 
 46.76         24 
 46.78         24 
 46.8          31 
 46.82         26 
 46.84         31 
 46.86         16 
 46.88         28 
 46.9          27 
 46.92         28 
 46.94         24 
 46.96         26 
 46.98         23 
 47            35 
 47.02         18 
 47.04         23 
 47.06         35 
 47.08         34 
 47.1          36 
 47.12         37 
 47.14         40 
 47.16         44 
 47.18         27 
 47.2          42 
 47.22         45 
 47.24         65 
 47.26         54 
 47.28         89 
 47.3          122 
 47.32         187 
 47.34         255 
 47.36         298 
 47.38         369 
 47.4          416 
 47.42         322 
 47.44         328 
 47.46         239 
 47.48         214 
 47.5          223 
 47.52         202 
 47.54         168 
 47.56         165 
 47.58         92 
 47.6          68 
 47.62         39 
 47.64         46 
 47.66         42 
 47.68         34 
 47.7          31 
 47.72         36 
 47.74         26 
 47.76         32 
 47.78         33 
 47.8          27 
 47.82         33 
 47.84         16 
 47.86         21 
 47.88         26 
 47.9          16 
 47.92         25 
 47.94         25 
 47.96         27 
 47.98         21 
 48            21 
 48.02         27 
 48.04         20 
 48.06         25 
 48.08         29 
 48.1          27 
 48.12         18 
 48.14         27 
 48.16         26 
 48.18         21 
 48.2          31 
 48.22         22 
 48.24         19 
 48.26         23 
 48.28         26 
 48.3          20 
 48.32         17 
 48.34         17 
 48.36         23 
 48.38         21 
 48.4          23 
 48.42         32 
 48.44         31 
 48.46         17 
 48.48         14 
 48.5          27 
 48.52         24 
 48.54         23 
 48.56         17 
 48.58         25 
 48.6          19 
 48.62         22 
 48.64         24 
 48.66         19 
 48.68         17 
 48.7          24 
 48.72         17 
 48.74         27 
 48.76         21 
 48.78         16 
 48.8          27 
 48.82         20 
 48.84         22 
 48.86         27 
 48.88         24 
 48.9          24 
 48.92         21 
 48.94         21 
 48.96         20 
 48.98         24 
 49            24 
 49.02         23 
 49.04         24 
 49.06         19 
 49.08         21 
 49.1          29 
 49.12         16 
 49.14         24 
 49.16         33 
 49.18         21 
 49.2          26 
 49.22         24 
 49.24         27 
 49.26         16 
 49.28         23 
 49.3          21 
 49.32         25 
 49.34         28 
 49.36         33 
 49.38         32 
 49.4          22 
 49.42         28 
 49.44         24 
 49.46         21 
 49.48         21 
 49.5          29 
 49.52         20 
 49.54         18 
 49.56         23 
 49.58         21 
 49.6          28 
 49.62         19 
 49.64         18 
 49.66         23 
 49.68         27 
 49.7          22 
 49.72         25 
 49.74         24 
 49.76         22 
 49.78         22 
 49.8          24 
 49.82         20 
 49.84         19 
 49.86         19 
 49.88         25 
 49.9          20 
 49.92         24 
 49.94         25 
 49.96         25 
 49.98         20 
 50            26 
 50.02         19 
 50.04         23 
 50.06         25 
 50.08         22 
 50.1          23 
 50.12         25 
 50.14         17 
 50.16         32 
 50.18         19 
 50.2          18 
 50.22         29 
 50.24         22 
 50.26         25 
 50.28         26 
 50.3          21 
 50.32         24 
 50.34         32 
 50.36         18 
 50.38         19 
 50.4          16 
 50.42         23 
 50.44         21 
 50.46         10 
 50.48         24 
 50.5          19 
 50.52         25 
 50.54         18 
 50.56         22 
 50.58         22 
 50.6          14 
 50.62         30 
 50.64         21 
 50.66         18 
 50.68         22 
 50.7          26 
 50.72         36 
 50.74         23 
 50.76         24 
 50.78         31 
 50.8          21 
 50.82         19 
 50.84         25 
 50.86         26 
 50.88         28 
 50.9          20 
 50.92         27 
 50.94         22 
 50.96         30 
 50.98         24 
 51            20 
 51.02         24 
 51.04         20 
 51.06         20 
 51.08         20 
 51.1          23 
 51.12         21 
 51.14         22 
 51.16         24 
 51.18         20 
 51.2          24 
 51.22         17 
 51.24         23 
 51.26         20 
 51.28         16 
 51.3          25 
 51.32         22 
 51.34         31 
 51.36         21 
 51.38         18 
 51.4          26 
 51.42         23 
 51.44         26 
 51.46         33 
 51.48         20 
 51.5          24 
 51.52         20 
 51.54         24 
 51.56         21 
 51.58         25 
 51.6          23 
 51.62         20 
 51.64         20 
 51.66         23 
 51.68         24 
 51.7          18 
 51.72         19 
 51.74         21 
 51.76         21 
 51.78         19 
 51.8          20 
 51.82         19 
 51.84         19 
 51.86         19 
 51.88         25 
 51.9          22 
 51.92         22 
 51.94         26 
 51.96         16 
 51.98         20 
 52            17 
 52.02         25 
 52.04         33 
 52.06         23 
 52.08         21 
 52.1          23 
 52.12         35 
 52.14         24 
 52.16         29 
 52.18         30 
 52.2          27 
 52.22         27 
 52.24         22 
 52.26         17 
 52.28         21 
 52.3          19 
 52.32         29 
 52.34         20 
 52.36         17 
 52.38         27 
 52.4          33 
 52.42         18 
 52.44         21 
 52.46         23 
 52.48         23 
 52.5          20 
 52.52         21 
 52.54         21 
 52.56         26 
 52.58         26 
 52.6          17 
 52.62         24 
 52.64         22 
 52.66         20 
 52.68         17 
 52.7          25 
 52.72         32 
 52.74         26 
 52.76         24 
 52.78         25 
 52.8          15 
 52.82         14 
 52.84         22 
 52.86         30 
 52.88         23 
 52.9          33 
 52.92         19 
 52.94         22 
 52.96         17 
 52.98         29 
 53            17 
 53.02         23 
 53.04         26 
 53.06         27 
 53.08         29 
 53.1          27 
 53.12         16 
 53.14         23 
 53.16         27 
 53.18         18 
 53.2          22 
 53.22         29 
 53.24         27 
 53.26         19 
 53.28         32 
 53.3          26 
 53.32         27 
 53.34         25 
 53.36         19 
 53.38         27 
 53.4          24 
 53.42         24 
 53.44         18 
 53.46         18 
 53.48         21 
 53.5          23 
 53.52         25 
 53.54         21 
 53.56         14 
 53.58         22 
 53.6          23 
 53.62         28 
 53.64         27 
 53.66         28 
 53.68         28 
 53.7          44 
 53.72         34 
 53.74         29 
 53.76         27 
 53.78         29 
 53.8          25 
 53.82         37 
 53.84         25 
 53.86         36 
 53.88         20 
 53.9          23 
 53.92         20 
 53.94         21 
 53.96         24 
 53.98         24 
 54            19 
 54.02         20 
 54.04         21 
 54.06         22 
 54.08         25 
 54.1          22 
 54.12         27 
 54.14         25 
 54.16         24 
 54.18         30 
 54.2          33 
 54.22         30 
 54.24         41 
 54.26         57 
 54.28         55 
 54.3          65 
 54.32         78 
 54.34         73 
 54.36         71 
 54.38         68 
 54.4          79 
 54.42         76 
 54.44         67 
 54.46         79 
 54.48         43 
 54.5          53 
 54.52         51 
 54.54         52 
 54.56         40 
 54.58         38 
 54.6          30 
 54.62         25 
 54.64         21 
 54.66         30 
 54.68         28 
 54.7          17 
 54.72         25 
 54.74         27 
 54.76         24 
 54.78         23 
 54.8          14 
 54.82         36 
 54.84         22 
 54.86         22 
 54.88         29 
 54.9          27 
 54.92         26 
 54.94         19 
 54.96         15 
 54.98         25 
 55            28 
 55.02         33 
 55.04         15 
 55.06         20 
 55.08         25 
 55.1          28 
 55.12         27 
 55.14         25 
 55.16         28 
 55.18         24 
 55.2          23 
 55.22         35 
 55.24         21 
 55.26         25 
 55.28         21 
 55.3          18 
 55.32         19 
 55.34         30 
 55.36         18 
 55.38         25 
 55.4          26 
 55.42         20 
 55.44         14 
 55.46         17 
 55.48         22 
 55.5          24 
 55.52         15 
 55.54         24 
 55.56         17 
 55.58         23 
 55.6          29 
 55.62         25 
 55.64         15 
 55.66         27 
 55.68         26 
 55.7          24 
 55.72         23 
 55.74         34 
 55.76         31 
 55.78         25 
 55.8          23 
 55.82         23 
 55.84         21 
 55.86         32 
 55.88         26 
 55.9          13 
 55.92         30 
 55.94         18 
 55.96         27 
 55.98         23 
 56            31 
 56.02         28 
 56.04         29 
 56.06         24 
 56.08         29 
 56.1          32 
 56.12         26 
 56.14         30 
 56.16         25 
 56.18         18 
 56.2          26 
 56.22         37 
 56.24         24 
 56.26         22 
 56.28         27 
 56.3          28 
 56.32         31 
 56.34         18 
 56.36         32 
 56.38         19 
 56.4          23 
 56.42         34 
 56.44         27 
 56.46         30 
 56.48         27 
 56.5          30 
 56.52         32 
 56.54         28 
 56.56         47 
 56.58         42 
 56.6          38 
 56.62         39 
 56.64         42 
 56.66         45 
 56.68         45 
 56.7          54 
 56.72         48 
 56.74         47 
 56.76         58 
 56.78         45 
 56.8          46 
 56.82         45 
 56.84         61 
 56.86         51 
 56.88         55 
 56.9          41 
 56.92         64 
 56.94         71 
 56.96         72 
 56.98         67 
 57            64 
 57.02         88 
 57.04         82 
 57.06         99 
 57.08         99 
 57.1          187 
 57.12         190 
 57.14         292 
 57.16         466 
 57.18         732 
 57.2          965 
 57.22         1150 
 57.24         1208 
 57.26         1110 
 57.28         1026 
 57.3          799 
 57.32         695 
 57.34         621 
 57.36         657 
 57.38         673 
 57.4          647 
 57.42         594 
 57.44         456 
 57.46         325 
 57.48         213 
 57.5          183 
 57.52         107 
 57.54         93 
 57.56         79 
 57.58         74 
 57.6          63 
 57.62         54 
 57.64         50 
 57.66         54 
 57.68         36 
 57.7          53 
 57.72         31 
 57.74         40 
 57.76         29 
 57.78         31 
 57.8          40 
 57.82         42 
 57.84         23 
 57.86         44 
 57.88         32 
 57.9          32 
 57.92         29 
 57.94         33 
 57.96         28 
 57.98         26 
 58            30 
 58.02         41 
 58.04         34 
 58.06         24 
 58.08         31 
 58.1          30 
 58.12         26 
 58.14         29 
 58.16         29 
 58.18         26 
 58.2          27 
 58.22         28 
 58.24         26 
 58.26         26 
 58.28         26 
 58.3          29 
 58.32         35 
 58.34         23 
 58.36         37 
 58.38         19 
 58.4          28 
 58.42         35 
 58.44         22 
 58.46         29 
 58.48         31 
 58.5          29 
 58.52         25 
 58.54         23 
 58.56         29 
 58.58         24 
 58.6          30 
 58.62         23 
 58.64         22 
 58.66         27 
 58.68         29 
 58.7          22 
 58.72         28 
 58.74         22 
 58.76         28 
 58.78         21 
 58.8          35 
 58.82         22 
 58.84         23 
 58.86         34 
 58.88         23 
 58.9          14 
 58.92         28 
 58.94         28 
 58.96         28 
 58.98         35 
 59            20 
 59.02         28 
 59.04         31 
 59.06         26 
 59.08         19 
 59.1          28 
 59.12         28 
 59.14         24 
 59.16         20 
 59.18         23 
 59.2          31 
 59.22         31 
 59.24         29 
 59.26         25 
 59.28         33 
 59.3          27 
 59.32         21 
 59.34         31 
 59.36         18 
 59.38         24 
 59.4          18 
 59.42         26 
 59.44         28 
 59.46         32 
 59.48         31 
 59.5          25 
 59.52         33 
 59.54         24 
 59.56         25 
 59.58         20 
 59.6          28 
 59.62         34 
 59.64         19 
 59.66         27 
 59.68         29 
 59.7          30 
 59.72         25 
 59.74         22 
 59.76         31 
 59.78         36 
 59.8          20 
 59.82         39 
 59.84         26 
 59.86         27 
 59.88         22 
 59.9          29 
 59.92         19 
 59.94         23 
 59.96         28 
 59.98         22 
 60            25 
 60.02         25 
 60.04         29 
 60.06         31 
 60.08         25 
 60.1          31 
 60.12         19 
 60.14         26 
 60.16         19 
 60.18         33 
 60.2          29 
 60.22         38 
 60.24         18 
 60.26         28 
 60.28         31 
 60.3          28 
 60.32         21 
 60.34         32 
 60.36         31 
 60.38         28 
 60.4          26 
 60.42         27 
 60.44         28 
 60.46         25 
 60.48         34 
 60.5          24 
 60.52         36 
 60.54         29 
 60.56         26 
 60.58         30 
 60.6          43 
 60.62         32 
 60.64         19 
 60.66         25 
 60.68         27 
 60.7          32 
 60.72         32 
 60.74         29 
 60.76         26 
 60.78         30 
 60.8          21 
 60.82         31 
 60.84         26 
 60.86         25 
 60.88         26 
 60.9          36 
 60.92         19 
 60.94         33 
 60.96         33 
 60.98         20 
 61            22 
 61.02         24 
 61.04         21 
 61.06         28 
 61.08         29 
 61.1          29 
 61.12         23 
 61.14         38 
 61.16         35 
 61.18         37 
 61.2          21 
 61.22         36 
 61.24         29 
 61.26         34 
 61.28         27 
 61.3          28 
 61.32         33 
 61.34         42 
 61.36         24 
 61.38         27 
 61.4          35 
 61.42         29 
 61.44         16 
 61.46         23 
 61.48         36 
 61.5          32 
 61.52         23 
 61.54         25 
 61.56         35 
 61.58         28 
 61.6          29 
 61.62         21 
 61.64         39 
 61.66         36 
 61.68         23 
 61.7          27 
 61.72         31 
 61.74         34 
 61.76         37 
 61.78         36 
 61.8          30 
 61.82         27 
 61.84         32 
 61.86         37 
 61.88         20 
 61.9          28 
 61.92         35 
 61.94         38 
 61.96         41 
 61.98         33 
 62            37 
 62.02         40 
 62.04         35 
 62.06         30 
 62.08         34 
 62.1          22 
 62.12         37 
 62.14         28 
 62.16         36 
 62.18         39 
 62.2          44 
 62.22         38 
 62.24         42 
 62.26         39 
 62.28         41 
 62.3          35 
 62.32         38 
 62.34         36 
 62.36         46 
 62.38         47 
 62.4          52 
 62.42         51 
 62.44         62 
 62.46         58 
 62.48         68 
 62.5          55 
 62.52         77 
 62.54         96 
 62.56         97 
 62.58         96 
 62.6          103 
 62.62         117 
 62.64         132 
 62.66         160 
 62.68         160 
 62.7          201 
 62.72         282 
 62.74         370 
 62.76         570 
 62.78         835 
 62.8          1257 
 62.82         1754 
 62.84         2043 
 62.86         2275 
 62.88         2108 
 62.9          1764 
 62.92         1362 
 62.94         1025 
 62.96         927 
 62.98         958 
 63            1092 
 63.02         1146 
 63.04         1193 
 63.06         942 
 63.08         766 
 63.1          474 
 63.12         314 
 63.14         237 
 63.16         183 
 63.18         140 
 63.2          99 
 63.22         108 
 63.24         100 
 63.26         71 
 63.28         69 
 63.3          65 
 63.32         72 
 63.34         66 
 63.36         58 
 63.38         73 
 63.4          56 
 63.42         58 
 63.44         50 
 63.46         50 
 63.48         46 
 63.5          54 
 63.52         44 
 63.54         47 
 63.56         43 
 63.58         46 
 63.6          34 
 63.62         43 
 63.64         42 
 63.66         47 
 63.68         39 
 63.7          42 
 63.72         36 
 63.74         32 
 63.76         42 
 63.78         47 
 63.8          30 
 63.82         29 
 63.84         39 
 63.86         27 
 63.88         38 
 63.9          36 
 63.92         29 
 63.94         24 
 63.96         37 
 63.98         27 
 64            51 
 64.02         28 
 64.04         34 
 64.06         30 
 64.08         30 
 64.1          27 
 64.12         31 
 64.14         28 
 64.16         31 
 64.18         38 
 64.2          40 
 64.22         33 
 64.24         23 
 64.26         30 
 64.28         35 
 64.3          36 
 64.32         35 
 64.34         38 
 64.36         30 
 64.38         33 
 64.4          33 
 64.42         18 
 64.44         27 
 64.46         33 
 64.48         37 
 64.5          24 
 64.52         29 
 64.54         35 
 64.56         29 
 64.58         29 
 64.6          27 
 64.62         31 
 64.64         28 
 64.66         35 
 64.68         30 
 64.7          20 
 64.72         19 
 64.74         23 
 64.76         24 
 64.78         24 
 64.8          26 
 64.82         37 
 64.84         30 
 64.86         33 
 64.88         31 
 64.9          34 
 64.92         29 
 64.94         28 
 64.96         33 
 64.98         23 
 65            30 
 65.02         34 
 65.04         33 
 65.06         22 
 65.08         25 
 65.1          27 
 65.12         30 
 65.14         35 
 65.16         17 
 65.18         34 
 65.2          30 
 65.22         28 
 65.24         23 
 65.26         25 
 65.28         25 
 65.3          25 
 65.32         22 
 65.34         24 
 65.36         39 
 65.38         31 
 65.4          33 
 65.42         41 
 65.44         30 
 65.46         26 
 65.48         30 
 65.5          35 
 65.52         42 
 65.54         20 
 65.56         34 
 65.58         26 
 65.6          40 
 65.62         31 
 65.64         33 
 65.66         34 
 65.68         31 
 65.7          28 
 65.72         37 
 65.74         62 
 65.76         44 
 65.78         40 
 65.8          45 
 65.82         45 
 65.84         51 
 65.86         52 
 65.88         55 
 65.9          79 
 65.92         95 
 65.94         93 
 65.96         107 
 65.98         184 
 66            221 
 66.02         340 
 66.04         483 
 66.06         645 
 66.08         721 
 66.1          724 
 66.12         701 
 66.14         579 
 66.16         414 
 66.18         313 
 66.2          322 
 66.22         321 
 66.24         389 
 66.26         392 
 66.28         427 
 66.3          366 
 66.32         319 
 66.34         230 
 66.36         145 
 66.38         104 
 66.4          86 
 66.42         64 
 66.44         70 
 66.46         51 
 66.48         49 
 66.5          45 
 66.52         36 
 66.54         29 
 66.56         45 
 66.58         46 
 66.6          36 
 66.62         43 
 66.64         31 
 66.66         26 
 66.68         28 
 66.7          25 
 66.72         28 
 66.74         32 
 66.76         44 
 66.78         32 
 66.8          33 
 66.82         29 
 66.84         19 
 66.86         27 
 66.88         26 
 66.9          20 
 66.92         29 
 66.94         30 
 66.96         23 
 66.98         31 
 67            23 
 67.02         29 
 67.04         30 
 67.06         33 
 67.08         20 
 67.1          29 
 67.12         25 
 67.14         31 
 67.16         35 
 67.18         34 
 67.2          27 
 67.22         30 
 67.24         39 
 67.26         24 
 67.28         16 
 67.3          28 
 67.32         28 
 67.34         29 
 67.36         36 
 67.38         26 
 67.4          24 
 67.42         23 
 67.44         32 
 67.46         20 
 67.48         29 
 67.5          29 
 67.52         24 
 67.54         31 
 67.56         16 
 67.58         23 
 67.6          29 
 67.62         28 
 67.64         28 
 67.66         22 
 67.68         33 
 67.7          24 
 67.72         21 
 67.74         30 
 67.76         29 
 67.78         28 
 67.8          19 
 67.82         25 
 67.84         22 
 67.86         29 
 67.88         20 
 67.9          27 
 67.92         21 
 67.94         22 
 67.96         24 
 67.98         31 
 68            22 
 68.02         27 
 68.04         12 
 68.06         26 
 68.08         21 
 68.1          23 
 68.12         19 
 68.14         22 
 68.16         22 
 68.18         26 
 68.2          29 
 68.22         17 
 68.24         20 
 68.26         23 
 68.28         17 
 68.3          22 
 68.32         15 
 68.34         15 
 68.36         18 
 68.38         23 
 68.4          22 
 68.42         20 
 68.44         16 
 68.46         18 
 68.48         23 
 68.5          17 
 68.52         19 
 68.54         18 
 68.56         25 
 68.58         24 
 68.6          25 
 68.62         31 
 68.64         25 
 68.66         24 
 68.68         22 
 68.7          22 
 68.72         22 
 68.74         25 
 68.76         19 
 68.78         26 
 68.8          31 
 68.82         25 
 68.84         24 
 68.86         19 
 68.88         28 
 68.9          23 
 68.92         23 
 68.94         31 
 68.96         23 
 68.98         32 
 69            33 
 69.02         36 
 69.04         48 
 69.06         28 
 69.08         39 
 69.1          32 
 69.12         42 
 69.14         39 
 69.16         35 
 69.18         35 
 69.2          23 
 69.22         28 
 69.24         41 
 69.26         26 
 69.28         29 
 69.3          28 
 69.32         26 
 69.34         27 
 69.36         27 
 69.38         30 
 69.4          22 
 69.42         33 
 69.44         26 
 69.46         23 
 69.48         23 
 69.5          24 
 69.52         25 
 69.54         34 
 69.56         23 
 69.58         22 
 69.6          21 
 69.62         22 
 69.64         25 
 69.66         23 
 69.68         20 
 69.7          23 
 69.72         25 
 69.74         41 
 69.76         24 
 69.78         33 
 69.8          25 
 69.82         21 
 69.84         35 
 69.86         30 
 69.88         32 
 69.9          27 
 69.92         29 
 69.94         18 
 69.96         24 
 69.98         32 
 70            24 
 70.02         26 
 70.04         27 
 70.06         28 
 70.08         21 
 70.1          20 
 70.12         30 
 70.14         21 
 70.16         24 
 70.18         24 
 70.2          26 
 70.22         30 
 70.24         18 
 70.26         40 
 70.28         21 
 70.3          13 
 70.32         21 
 70.34         21 
 70.36         14 
 70.38         18 
 70.4          24 
 70.42         19 
 70.44         14 
 70.46         17 
 70.48         23 
 70.5          24 
 70.52         13 
 70.54         17 
 70.56         21 
 70.58         15 
 70.6          19 
 70.62         24 
 70.64         20 
 70.66         25 
 70.68         24 
 70.7          17 
 70.72         18 
 70.74         18 
 70.76         19 
 70.78         20 
 70.8          15 
 70.82         18 
 70.84         20 
 70.86         27 
 70.88         22 
 70.9          18 
 70.92         24 
 70.94         18 
 70.96         13 
 70.98         27 
 71            21 
 71.02         18 
 71.04         16 
 71.06         14 
 71.08         27 
 71.1          15 
 71.12         23 
 71.14         18 
 71.16         30 
 71.18         25 
 71.2          25 
 71.22         18 
 71.24         17 
 71.26         15 
 71.28         19 
 71.3          18 
 71.32         16 
 71.34         24 
 71.36         29 
 71.38         23 
 71.4          21 
 71.42         18 
 71.44         17 
 71.46         22 
 71.48         14 
 71.5          17 
 71.52         16 
 71.54         19 
 71.56         20 
 71.58         19 
 71.6          23 
 71.62         22 
 71.64         27 
 71.66         20 
 71.68         13 
 71.7          20 
 71.72         19 
 71.74         23 
 71.76         22 
 71.78         17 
 71.8          23 
 71.82         30 
 71.84         27 
 71.86         18 
 71.88         10 
 71.9          19 
 71.92         27 
 71.94         19 
 71.96         22 
 71.98         18 
 72            21 
 72.02         22 
 72.04         33 
 72.06         24 
 72.08         13 
 72.1          15 
 72.12         20 
 72.14         17 
 72.16         26 
 72.18         17 
 72.2          15 
 72.22         18 
 72.24         24 
 72.26         15 
 72.28         24 
 72.3          25 
 72.32         24 
 72.34         17 
 72.36         16 
 72.38         14 
 72.4          19 
 72.42         19 
 72.44         22 
 72.46         22 
 72.48         16 
 72.5          18 
 72.52         23 
 72.54         18 
 72.56         26 
 72.58         22 
 72.6          20 
 72.62         24 
 72.64         15 
 72.66         22 
 72.68         17 
 72.7          20 
 72.72         19 
 72.74         25 
 72.76         23 
 72.78         26 
 72.8          11 
 72.82         26 
 72.84         22 
 72.86         16 
 72.88         23 
 72.9          14 
 72.92         19 
 72.94         24 
 72.96         11 
 72.98         16 
 73            15 
 73.02         19 
 73.04         17 
 73.06         25 
 73.08         20 
 73.1          31 
 73.12         20 
 73.14         14 
 73.16         15 
 73.18         24 
 73.2          17 
 73.22         17 
 73.24         31 
 73.26         12 
 73.28         12 
 73.3          17 
 73.32         20 
 73.34         18 
 73.36         22 
 73.38         16 
 73.4          21 
 73.42         24 
 73.44         20 
 73.46         20 
 73.48         19 
 73.5          22 
 73.52         15 
 73.54         18 
 73.56         19 
 73.58         22 
 73.6          21 
 73.62         21 
 73.64         22 
 73.66         20 
 73.68         15 
 73.7          17 
 73.72         12 
 73.74         19 
 73.76         20 
 73.78         24 
 73.8          22 
 73.82         19 
 73.84         16 
 73.86         24 
 73.88         22 
 73.9          19 
 73.92         31 
 73.93999      19 
 73.96         18 
 73.98         32 
 74            23 
 74.02         23 
 74.04         27 
 74.06         29 
 74.08         23 
 74.1          27 
 74.12         28 
 74.14         27 
 74.16         38 
 74.18         33 
 74.2          28 
 74.22         30 
 74.24         38 
 74.26         78 
 74.28         94 
 74.3          110 
 74.32         176 
 74.34         200 
 74.36         257 
 74.38         250 
 74.4          259 
 74.42         236 
 74.43999      177 
 74.46         117 
 74.48         79 
 74.5          72 
 74.52         82 
 74.54         112 
 74.56         138 
 74.58         154 
 74.6          139 
 74.62         119 
 74.64         101 
 74.66         63 
 74.68         40 
 74.7          44 
 74.72         39 
 74.74         27 
 74.76         24 
 74.78         34 
 74.8          26 
 74.82         26 
 74.84         17 
 74.86         21 
 74.88         30 
 74.9          22 
 74.92         29 
 74.93999      26 
 74.96         23 
 74.98         29 
 75            23 
