LTO Spinell Aldrich  Original Data
 3151 
 12            323 
 12.02         339 
 12.04         309 
 12.06         340 
 12.08         313 
 12.1          306 
 12.12         322 
 12.14         321 
 12.16         293 
 12.18         344 
 12.2          314 
 12.22         326 
 12.24         375 
 12.26         279 
 12.28         345 
 12.3          282 
 12.32         329 
 12.34         303 
 12.36         299 
 12.38         309 
 12.4          323 
 12.42         317 
 12.44         336 
 12.46         344 
 12.48         323 
 12.5          336 
 12.52         297 
 12.54         331 
 12.56         342 
 12.58         320 
 12.6          284 
 12.62         314 
 12.64         324 
 12.66         335 
 12.68         298 
 12.7          309 
 12.72         304 
 12.74         307 
 12.76         295 
 12.78         302 
 12.8          287 
 12.82         300 
 12.84         307 
 12.86         293 
 12.88         294 
 12.9          302 
 12.92         312 
 12.94         302 
 12.96         312 
 12.98         294 
 13            315 
 13.02         285 
 13.04         282 
 13.06         326 
 13.08         296 
 13.1          321 
 13.12         264 
 13.14         303 
 13.16         284 
 13.18         281 
 13.2          277 
 13.22         314 
 13.24         276 
 13.26         265 
 13.28         253 
 13.3          301 
 13.32         281 
 13.34         281 
 13.36         274 
 13.38         263 
 13.4          303 
 13.42         255 
 13.44         296 
 13.46         291 
 13.48         278 
 13.5          267 
 13.52         279 
 13.54         261 
 13.56         275 
 13.58         248 
 13.6          266 
 13.62         261 
 13.64         249 
 13.66         271 
 13.68         238 
 13.7          251 
 13.72         256 
 13.74         273 
 13.76         253 
 13.78         265 
 13.8          247 
 13.82         250 
 13.84         210 
 13.86         247 
 13.88         232 
 13.9          267 
 13.92         216 
 13.94         247 
 13.96         256 
 13.98         221 
 14            245 
 14.02         216 
 14.04         235 
 14.06         219 
 14.08         246 
 14.1          217 
 14.12         238 
 14.14         226 
 14.16         221 
 14.18         219 
 14.2          219 
 14.22         207 
 14.24         239 
 14.26         228 
 14.28         222 
 14.3          250 
 14.32         217 
 14.34         214 
 14.36         213 
 14.38         217 
 14.4          241 
 14.42         225 
 14.44         200 
 14.46         206 
 14.48         173 
 14.5          205 
 14.52         194 
 14.54         211 
 14.56         241 
 14.58         209 
 14.6          209 
 14.62         206 
 14.64         218 
 14.66         176 
 14.68         221 
 14.7          203 
 14.72         208 
 14.74         216 
 14.76         208 
 14.78         212 
 14.8          180 
 14.82         194 
 14.84         194 
 14.86         209 
 14.88         194 
 14.9          189 
 14.92         197 
 14.94         196 
 14.96         184 
 14.98         196 
 15            212 
 15.02         196 
 15.04         170 
 15.06         208 
 15.08         191 
 15.1          177 
 15.12         182 
 15.14         184 
 15.16         202 
 15.18         151 
 15.2          158 
 15.22         169 
 15.24         171 
 15.26         199 
 15.28         157 
 15.3          167 
 15.32         176 
 15.34         182 
 15.36         161 
 15.38         191 
 15.4          166 
 15.42         183 
 15.44         171 
 15.46         135 
 15.48         163 
 15.5          174 
 15.52         161 
 15.54         176 
 15.56         162 
 15.58         184 
 15.6          185 
 15.62         179 
 15.64         151 
 15.66         164 
 15.68         172 
 15.7          163 
 15.72         182 
 15.74         167 
 15.76         171 
 15.78         175 
 15.8          163 
 15.82         142 
 15.84         163 
 15.86         163 
 15.88         172 
 15.9          157 
 15.92         162 
 15.94         180 
 15.96         156 
 15.98         157 
 16            155 
 16.02         179 
 16.04         202 
 16.06         174 
 16.08         160 
 16.1          173 
 16.12         164 
 16.14         153 
 16.16         155 
 16.18         177 
 16.2          155 
 16.22         157 
 16.24         138 
 16.26         176 
 16.28         148 
 16.3          155 
 16.32         163 
 16.34         141 
 16.36         160 
 16.38         160 
 16.4          164 
 16.42         141 
 16.44         141 
 16.46         140 
 16.48         146 
 16.5          177 
 16.52         137 
 16.54         149 
 16.56         168 
 16.58         152 
 16.6          153 
 16.62         142 
 16.64         159 
 16.66         139 
 16.68         136 
 16.7          155 
 16.72         147 
 16.74         157 
 16.76         165 
 16.78         165 
 16.8          170 
 16.82         152 
 16.84         132 
 16.86         154 
 16.88         139 
 16.9          167 
 16.92         135 
 16.94         164 
 16.96         129 
 16.98         168 
 17            152 
 17.02         134 
 17.04         160 
 17.06         155 
 17.08         152 
 17.1          157 
 17.12         151 
 17.14         161 
 17.16         152 
 17.18         154 
 17.2          157 
 17.22         182 
 17.24         154 
 17.26         159 
 17.28         166 
 17.3          166 
 17.32         150 
 17.34         158 
 17.36         156 
 17.38         150 
 17.4          171 
 17.42         160 
 17.44         163 
 17.46         163 
 17.48         148 
 17.5          160 
 17.52         169 
 17.54         174 
 17.56         187 
 17.58         195 
 17.6          191 
 17.62         176 
 17.64         174 
 17.66         218 
 17.68         228 
 17.7          206 
 17.72         237 
 17.74         260 
 17.76         250 
 17.78         279 
 17.8          293 
 17.82         310 
 17.84         358 
 17.86         378 
 17.88         411 
 17.9          451 
 17.92         517 
 17.94         602 
 17.96         648 
 17.98         737 
 18            837 
 18.02         939 
 18.04         1163 
 18.06         1338 
 18.08         1411 
 18.1          1708 
 18.12         1933 
 18.14         2403 
 18.16         2716 
 18.18         3148 
 18.2          3719 
 18.22         4457 
 18.24         5358 
 18.26         6174 
 18.28         7352 
 18.3          8484 
 18.32         9292 
 18.34         9312 
 18.36         9056 
 18.38         8095 
 18.4          6605 
 18.42         5296 
 18.44         3895 
 18.46         2664 
 18.48         1906 
 18.5          1375 
 18.52         1064 
 18.54         812 
 18.56         760 
 18.58         583 
 18.6          518 
 18.62         408 
 18.64         444 
 18.66         389 
 18.68         390 
 18.7          331 
 18.72         301 
 18.74         281 
 18.76         290 
 18.78         227 
 18.8          236 
 18.82         206 
 18.84         224 
 18.86         195 
 18.88         185 
 18.9          200 
 18.92         200 
 18.94         176 
 18.96         159 
 18.98         184 
 19            166 
 19.02         171 
 19.04         148 
 19.06         175 
 19.08         145 
 19.1          151 
 19.12         137 
 19.14         152 
 19.16         139 
 19.18         134 
 19.2          140 
 19.22         145 
 19.24         155 
 19.26         138 
 19.28         137 
 19.3          159 
 19.32         130 
 19.34         138 
 19.36         147 
 19.38         136 
 19.4          173 
 19.42         138 
 19.44         145 
 19.46         147 
 19.48         154 
 19.5          114 
 19.52         124 
 19.54         146 
 19.56         131 
 19.58         120 
 19.6          139 
 19.62         150 
 19.64         148 
 19.66         120 
 19.68         138 
 19.7          139 
 19.72         148 
 19.74         138 
 19.76         143 
 19.78         142 
 19.8          113 
 19.82         117 
 19.84         139 
 19.86         147 
 19.88         133 
 19.9          129 
 19.92         147 
 19.94         146 
 19.96         127 
 19.98         148 
 20            123 
 20.02         147 
 20.04         146 
 20.06         129 
 20.08         117 
 20.1          146 
 20.12         168 
 20.14         184 
 20.16         158 
 20.18         158 
 20.2          171 
 20.22         169 
 20.24         165 
 20.26         152 
 20.28         151 
 20.3          159 
 20.32         178 
 20.34         134 
 20.36         153 
 20.38         164 
 20.4          156 
 20.42         163 
 20.44         120 
 20.46         160 
 20.48         132 
 20.5          126 
 20.52         131 
 20.54         141 
 20.56         157 
 20.58         141 
 20.6          135 
 20.62         158 
 20.64         134 
 20.66         154 
 20.68         162 
 20.7          114 
 20.72         136 
 20.74         156 
 20.76         157 
 20.78         146 
 20.8          131 
 20.82         146 
 20.84         111 
 20.86         148 
 20.88         140 
 20.9          159 
 20.92         126 
 20.94         137 
 20.96         127 
 20.98         128 
 21            133 
 21.02         119 
 21.04         149 
 21.06         161 
 21.08         149 
 21.1          139 
 21.12         143 
 21.14         119 
 21.16         136 
 21.18         139 
 21.2          140 
 21.22         152 
 21.24         152 
 21.26         138 
 21.28         158 
 21.3          139 
 21.32         152 
 21.34         144 
 21.36         145 
 21.38         163 
 21.4          145 
 21.42         129 
 21.44         159 
 21.46         131 
 21.48         139 
 21.5          131 
 21.52         129 
 21.54         140 
 21.56         149 
 21.58         116 
 21.6          137 
 21.62         132 
 21.64         149 
 21.66         148 
 21.68         115 
 21.7          124 
 21.72         123 
 21.74         125 
 21.76         118 
 21.78         129 
 21.8          136 
 21.82         148 
 21.84         152 
 21.86         98 
 21.88         134 
 21.9          147 
 21.92         139 
 21.94         127 
 21.96         138 
 21.98         123 
 22            128 
 22.02         119 
 22.04         152 
 22.06         142 
 22.08         129 
 22.1          146 
 22.12         142 
 22.14         156 
 22.16         147 
 22.18         164 
 22.2          162 
 22.22         154 
 22.24         157 
 22.26         162 
 22.28         205 
 22.3          182 
 22.32         175 
 22.34         128 
 22.36         197 
 22.38         183 
 22.4          168 
 22.42         186 
 22.44         150 
 22.46         172 
 22.48         175 
 22.5          171 
 22.52         173 
 22.54         170 
 22.56         155 
 22.58         163 
 22.6          182 
 22.62         169 
 22.64         164 
 22.66         146 
 22.68         137 
 22.7          150 
 22.72         149 
 22.74         147 
 22.76         153 
 22.78         137 
 22.8          113 
 22.82         129 
 22.84         131 
 22.86         134 
 22.88         114 
 22.9          136 
 22.92         119 
 22.94         112 
 22.96         106 
 22.98         113 
 23            143 
 23.02         134 
 23.04         117 
 23.06         116 
 23.08         129 
 23.1          139 
 23.12         121 
 23.14         113 
 23.16         118 
 23.18         128 
 23.2          123 
 23.22         132 
 23.24         127 
 23.26         112 
 23.28         124 
 23.3          130 
 23.32         119 
 23.34         136 
 23.36         135 
 23.38         110 
 23.4          127 
 23.42         130 
 23.44         130 
 23.46         110 
 23.48         137 
 23.5          130 
 23.52         130 
 23.54         123 
 23.56         105 
 23.58         122 
 23.6          138 
 23.62         127 
 23.64         123 
 23.66         139 
 23.68         120 
 23.7          152 
 23.72         133 
 23.74         117 
 23.76         133 
 23.78         125 
 23.8          114 
 23.82         130 
 23.84         133 
 23.86         125 
 23.88         114 
 23.9          119 
 23.92         126 
 23.94         98 
 23.96         108 
 23.98         126 
 24            121 
 24.02         106 
 24.04         126 
 24.06         117 
 24.08         128 
 24.1          112 
 24.12         143 
 24.14         120 
 24.16         137 
 24.18         119 
 24.2          125 
 24.22         127 
 24.24         126 
 24.26         128 
 24.28         110 
 24.3          106 
 24.32         103 
 24.34         113 
 24.36         133 
 24.38         119 
 24.4          93 
 24.42         125 
 24.44         106 
 24.46         124 
 24.48         127 
 24.5          123 
 24.52         138 
 24.54         139 
 24.56         106 
 24.58         105 
 24.6          112 
 24.62         114 
 24.64         118 
 24.66         107 
 24.68         134 
 24.7          139 
 24.72         114 
 24.74         118 
 24.76         101 
 24.78         117 
 24.8          111 
 24.82         123 
 24.84         118 
 24.86         138 
 24.88         119 
 24.9          104 
 24.92         126 
 24.94         105 
 24.96         118 
 24.98         139 
 25            128 
 25.02         122 
 25.04         123 
 25.06         126 
 25.08         138 
 25.1          115 
 25.12         108 
 25.14         112 
 25.16         122 
 25.18         118 
 25.2          127 
 25.22         115 
 25.24         116 
 25.26         115 
 25.28         126 
 25.3          124 
 25.32         143 
 25.34         112 
 25.36         126 
 25.38         103 
 25.4          115 
 25.42         112 
 25.44         120 
 25.46         104 
 25.48         116 
 25.5          104 
 25.52         123 
 25.54         112 
 25.56         110 
 25.58         132 
 25.6          129 
 25.62         141 
 25.64         113 
 25.66         132 
 25.68         108 
 25.7          125 
 25.72         115 
 25.74         121 
 25.76         116 
 25.78         112 
 25.8          101 
 25.82         111 
 25.84         124 
 25.86         133 
 25.88         126 
 25.9          108 
 25.92         108 
 25.94         119 
 25.96         119 
 25.98         110 
 26            114 
 26.02         112 
 26.04         121 
 26.06         118 
 26.08         114 
 26.1          119 
 26.12         121 
 26.14         118 
 26.16         114 
 26.18         97 
 26.2          115 
 26.22         107 
 26.24         116 
 26.26         116 
 26.28         103 
 26.3          121 
 26.32         129 
 26.34         127 
 26.36         97 
 26.38         113 
 26.4          116 
 26.42         112 
 26.44         128 
 26.46         99 
 26.48         102 
 26.5          105 
 26.52         101 
 26.54         129 
 26.56         109 
 26.58         124 
 26.6          95 
 26.62         124 
 26.64         148 
 26.66         118 
 26.68         108 
 26.7          108 
 26.72         108 
 26.74         133 
 26.76         110 
 26.78         116 
 26.8          112 
 26.82         119 
 26.84         97 
 26.86         115 
 26.88         134 
 26.9          101 
 26.92         111 
 26.94         97 
 26.96         122 
 26.98         135 
 27            122 
 27.02         119 
 27.04         98 
 27.06         134 
 27.08         131 
 27.1          124 
 27.12         121 
 27.14         134 
 27.16         113 
 27.18         156 
 27.2          133 
 27.22         138 
 27.24         127 
 27.26         136 
 27.28         136 
 27.3          154 
 27.32         148 
 27.34         155 
 27.36         171 
 27.38         205 
 27.4          220 
 27.42         213 
 27.44         236 
 27.46         231 
 27.48         175 
 27.5          202 
 27.52         163 
 27.54         156 
 27.56         136 
 27.58         126 
 27.6          133 
 27.62         125 
 27.64         132 
 27.66         123 
 27.68         105 
 27.7          118 
 27.72         118 
 27.74         127 
 27.76         116 
 27.78         119 
 27.8          92 
 27.82         101 
 27.84         113 
 27.86         115 
 27.88         111 
 27.9          107 
 27.92         106 
 27.94         120 
 27.96         125 
 27.98         114 
 28            104 
 28.02         105 
 28.04         96 
 28.06         96 
 28.08         99 
 28.1          118 
 28.12         112 
 28.14         100 
 28.16         112 
 28.18         94 
 28.2          94 
 28.22         105 
 28.24         109 
 28.26         103 
 28.28         100 
 28.3          95 
 28.32         96 
 28.34         87 
 28.36         109 
 28.38         93 
 28.4          108 
 28.42         92 
 28.44         101 
 28.46         97 
 28.48         90 
 28.5          89 
 28.52         101 
 28.54         94 
 28.56         104 
 28.58         109 
 28.6          109 
 28.62         94 
 28.64         112 
 28.66         100 
 28.68         90 
 28.7          85 
 28.72         92 
 28.74         103 
 28.76         87 
 28.78         73 
 28.8          89 
 28.82         78 
 28.84         105 
 28.86         81 
 28.88         96 
 28.9          92 
 28.92         99 
 28.94         92 
 28.96         80 
 28.98         83 
 29            80 
 29.02         100 
 29.04         95 
 29.06         95 
 29.08         91 
 29.1          103 
 29.12         81 
 29.14         86 
 29.16         97 
 29.18         90 
 29.2          88 
 29.22         98 
 29.24         86 
 29.26         95 
 29.28         96 
 29.3          78 
 29.32         83 
 29.34         73 
 29.36         86 
 29.38         88 
 29.4          92 
 29.42         88 
 29.44         87 
 29.46         84 
 29.48         72 
 29.5          88 
 29.52         76 
 29.54         92 
 29.56         86 
 29.58         85 
 29.6          100 
 29.62         82 
 29.64         96 
 29.66         88 
 29.68         97 
 29.7          89 
 29.72         81 
 29.74         89 
 29.76         97 
 29.78         94 
 29.8          75 
 29.82         86 
 29.84         75 
 29.86         98 
 29.88         85 
 29.9          96 
 29.92         81 
 29.94         91 
 29.96         99 
 29.98         88 
 30            98 
 30.02         95 
 30.04         134 
 30.06         125 
 30.08         108 
 30.1          112 
 30.12         143 
 30.14         165 
 30.16         168 
 30.18         151 
 30.2          168 
 30.22         175 
 30.24         167 
 30.26         150 
 30.28         110 
 30.3          134 
 30.32         99 
 30.34         119 
 30.36         108 
 30.38         90 
 30.4          95 
 30.42         95 
 30.44         91 
 30.46         81 
 30.48         103 
 30.5          117 
 30.52         98 
 30.54         91 
 30.56         63 
 30.58         89 
 30.6          62 
 30.62         90 
 30.64         83 
 30.66         76 
 30.68         85 
 30.7          83 
 30.72         80 
 30.74         80 
 30.76         90 
 30.78         65 
 30.8          78 
 30.82         83 
 30.84         75 
 30.86         64 
 30.88         74 
 30.9          79 
 30.92         73 
 30.94         85 
 30.96         86 
 30.98         63 
 31            61 
 31.02         72 
 31.04         76 
 31.06         78 
 31.08         88 
 31.1          74 
 31.12         75 
 31.14         78 
 31.16         73 
 31.18         61 
 31.2          75 
 31.22         63 
 31.24         75 
 31.26         76 
 31.28         56 
 31.3          68 
 31.32         64 
 31.34         63 
 31.36         68 
 31.38         77 
 31.4          68 
 31.42         81 
 31.44         63 
 31.46         85 
 31.48         77 
 31.5          77 
 31.52         83 
 31.54         64 
 31.56         67 
 31.58         72 
 31.6          79 
 31.62         86 
 31.64         65 
 31.66         75 
 31.68         80 
 31.7          91 
 31.72         79 
 31.74         66 
 31.76         72 
 31.78         80 
 31.8          68 
 31.82         86 
 31.84         78 
 31.86         78 
 31.88         82 
 31.9          65 
 31.92         59 
 31.94         68 
 31.96         59 
 31.98         75 
 32            73 
 32.02         59 
 32.04         86 
 32.06         70 
 32.08         56 
 32.1          65 
 32.12         65 
 32.14         83 
 32.16         90 
 32.18         75 
 32.2          77 
 32.22         56 
 32.24         64 
 32.26         73 
 32.28         64 
 32.3          83 
 32.32         77 
 32.34         76 
 32.36         58 
 32.38         68 
 32.4          61 
 32.42         59 
 32.44         56 
 32.46         65 
 32.48         62 
 32.5          66 
 32.52         73 
 32.54         71 
 32.56         58 
 32.58         65 
 32.6          72 
 32.62         70 
 32.64         67 
 32.66         58 
 32.68         72 
 32.7          66 
 32.72         74 
 32.74         52 
 32.76         45 
 32.78         51 
 32.8          64 
 32.82         73 
 32.84         66 
 32.86         59 
 32.88         64 
 32.9          59 
 32.92         71 
 32.94         57 
 32.96         77 
 32.98         61 
 33            65 
 33.02         57 
 33.04         71 
 33.06         57 
 33.08         58 
 33.1          63 
 33.12         58 
 33.14         64 
 33.16         78 
 33.18         60 
 33.2          55 
 33.22         56 
 33.24         58 
 33.26         64 
 33.28         60 
 33.3          62 
 33.32         71 
 33.34         60 
 33.36         46 
 33.38         45 
 33.4          69 
 33.42         57 
 33.44         70 
 33.46         72 
 33.48         65 
 33.5          68 
 33.52         57 
 33.54         62 
 33.56         59 
 33.58         65 
 33.6          72 
 33.62         56 
 33.64         61 
 33.66         60 
 33.68         54 
 33.7          62 
 33.72         46 
 33.74         57 
 33.76         66 
 33.78         58 
 33.8          68 
 33.82         56 
 33.84         84 
 33.86         58 
 33.88         50 
 33.9          71 
 33.92         52 
 33.94         62 
 33.96         59 
 33.98         59 
 34            59 
 34.02         61 
 34.04         58 
 34.06         61 
 34.08         76 
 34.1          68 
 34.12         82 
 34.14         74 
 34.16         63 
 34.18         64 
 34.2          59 
 34.22         51 
 34.24         63 
 34.26         52 
 34.28         60 
 34.3          68 
 34.32         58 
 34.34         70 
 34.36         68 
 34.38         60 
 34.4          64 
 34.42         74 
 34.44         65 
 34.46         59 
 34.48         57 
 34.5          58 
 34.52         77 
 34.54         71 
 34.56         69 
 34.58         65 
 34.6          76 
 34.62         80 
 34.64         73 
 34.66         71 
 34.68         92 
 34.7          66 
 34.72         68 
 34.74         81 
 34.76         76 
 34.78         94 
 34.8          92 
 34.82         114 
 34.84         109 
 34.86         110 
 34.88         115 
 34.9          121 
 34.92         100 
 34.94         109 
 34.96         101 
 34.98         130 
 35            124 
 35.02         131 
 35.04         129 
 35.06         164 
 35.08         146 
 35.1          149 
 35.12         150 
 35.14         181 
 35.16         195 
 35.18         192 
 35.2          221 
 35.22         244 
 35.24         246 
 35.26         274 
 35.28         323 
 35.3          390 
 35.32         404 
 35.34         500 
 35.36         642 
 35.38         679 
 35.4          941 
 35.42         1115 
 35.44         1348 
 35.46         1809 
 35.48         2191 
 35.5          2778 
 35.52         3294 
 35.54         3816 
 35.56         4182 
 35.58         4083 
 35.6          3891 
 35.62         3519 
 35.64         2996 
 35.66         2586 
 35.68         2058 
 35.7          1609 
 35.72         1151 
 35.74         853 
 35.76         646 
 35.78         457 
 35.8          407 
 35.82         340 
 35.84         294 
 35.86         303 
 35.88         246 
 35.9          239 
 35.92         233 
 35.94         224 
 35.96         193 
 35.98         188 
 36            187 
 36.02         157 
 36.04         175 
 36.06         181 
 36.08         140 
 36.1          155 
 36.12         131 
 36.14         139 
 36.16         135 
 36.18         107 
 36.2          93 
 36.22         90 
 36.24         97 
 36.26         100 
 36.28         79 
 36.3          67 
 36.32         68 
 36.34         81 
 36.36         69 
 36.38         61 
 36.4          65 
 36.42         70 
 36.44         64 
 36.46         69 
 36.48         82 
 36.5          65 
 36.52         64 
 36.54         67 
 36.56         64 
 36.58         53 
 36.6          62 
 36.62         62 
 36.64         70 
 36.66         59 
 36.68         70 
 36.7          58 
 36.72         50 
 36.74         67 
 36.76         54 
 36.78         62 
 36.8          63 
 36.82         56 
 36.84         60 
 36.86         67 
 36.88         73 
 36.9          63 
 36.92         61 
 36.94         74 
 36.96         59 
 36.98         73 
 37            70 
 37.02         87 
 37.04         94 
 37.06         93 
 37.08         117 
 37.1          128 
 37.12         129 
 37.14         164 
 37.16         192 
 37.18         218 
 37.2          201 
 37.22         223 
 37.24         234 
 37.26         194 
 37.28         157 
 37.3          168 
 37.32         126 
 37.34         119 
 37.36         89 
 37.38         66 
 37.4          84 
 37.42         64 
 37.44         49 
 37.46         61 
 37.48         58 
 37.5          42 
 37.52         50 
 37.54         60 
 37.56         67 
 37.58         55 
 37.6          56 
 37.62         53 
 37.64         46 
 37.66         53 
 37.68         62 
 37.7          46 
 37.72         66 
 37.74         58 
 37.76         44 
 37.78         38 
 37.8          57 
 37.82         42 
 37.84         52 
 37.86         46 
 37.88         42 
 37.9          45 
 37.92         45 
 37.94         48 
 37.96         44 
 37.98         45 
 38            42 
 38.02         55 
 38.04         38 
 38.06         57 
 38.08         57 
 38.1          43 
 38.12         42 
 38.14         55 
 38.16         52 
 38.18         48 
 38.2          50 
 38.22         39 
 38.24         53 
 38.26         52 
 38.28         50 
 38.3          49 
 38.32         44 
 38.34         39 
 38.36         40 
 38.38         56 
 38.4          58 
 38.42         44 
 38.44         40 
 38.46         42 
 38.48         55 
 38.5          49 
 38.52         49 
 38.54         40 
 38.56         56 
 38.58         47 
 38.6          47 
 38.62         46 
 38.64         36 
 38.66         52 
 38.68         54 
 38.7          51 
 38.72         43 
 38.74         51 
 38.76         55 
 38.78         39 
 38.8          50 
 38.82         51 
 38.84         45 
 38.86         46 
 38.88         41 
 38.9          49 
 38.92         49 
 38.94         45 
 38.96         44 
 38.98         42 
 39            42 
 39.02         50 
 39.04         56 
 39.06         59 
 39.08         49 
 39.1          36 
 39.12         48 
 39.14         49 
 39.16         45 
 39.18         47 
 39.2          50 
 39.22         47 
 39.24         47 
 39.26         48 
 39.28         55 
 39.3          49 
 39.32         40 
 39.34         48 
 39.36         46 
 39.38         58 
 39.4          41 
 39.42         56 
 39.44         53 
 39.46         41 
 39.48         55 
 39.5          48 
 39.52         43 
 39.54         47 
 39.56         56 
 39.58         47 
 39.6          49 
 39.62         48 
 39.64         46 
 39.66         54 
 39.68         38 
 39.7          46 
 39.72         55 
 39.74         36 
 39.76         28 
 39.78         55 
 39.8          56 
 39.82         40 
 39.84         37 
 39.86         46 
 39.88         49 
 39.9          37 
 39.92         37 
 39.94         49 
 39.96         43 
 39.98         63 
 40            46 
 40.02         35 
 40.04         59 
 40.06         48 
 40.08         44 
 40.1          48 
 40.12         41 
 40.14         39 
 40.16         40 
 40.18         55 
 40.2          37 
 40.22         52 
 40.24         63 
 40.26         68 
 40.28         65 
 40.3          56 
 40.32         67 
 40.34         70 
 40.36         64 
 40.38         81 
 40.4          80 
 40.42         80 
 40.44         76 
 40.46         78 
 40.48         78 
 40.5          77 
 40.52         69 
 40.54         73 
 40.56         56 
 40.58         60 
 40.6          54 
 40.62         56 
 40.64         48 
 40.66         40 
 40.68         47 
 40.7          40 
 40.72         43 
 40.74         44 
 40.76         53 
 40.78         45 
 40.8          43 
 40.82         45 
 40.84         48 
 40.86         43 
 40.88         41 
 40.9          54 
 40.92         53 
 40.94         39 
 40.96         36 
 40.98         49 
 41            51 
 41.02         49 
 41.04         50 
 41.06         55 
 41.08         51 
 41.1          51 
 41.12         57 
 41.14         54 
 41.16         72 
 41.18         72 
 41.2          61 
 41.22         59 
 41.24         72 
 41.26         50 
 41.28         49 
 41.3          53 
 41.32         57 
 41.34         61 
 41.36         54 
 41.38         60 
 41.4          58 
 41.42         55 
 41.44         40 
 41.46         50 
 41.48         40 
 41.5          62 
 41.52         53 
 41.54         49 
 41.56         38 
 41.58         56 
 41.6          63 
 41.62         51 
 41.64         48 
 41.66         52 
 41.68         62 
 41.7          57 
 41.72         43 
 41.74         58 
 41.76         52 
 41.78         54 
 41.8          47 
 41.82         44 
 41.84         61 
 41.86         63 
 41.88         68 
 41.9          49 
 41.92         47 
 41.94         52 
 41.96         53 
 41.98         56 
 42            54 
 42.02         41 
 42.04         44 
 42.06         49 
 42.08         49 
 42.1          60 
 42.12         45 
 42.14         54 
 42.16         67 
 42.18         59 
 42.2          58 
 42.22         61 
 42.24         71 
 42.26         62 
 42.28         74 
 42.3          65 
 42.32         67 
 42.34         73 
 42.36         65 
 42.38         71 
 42.4          69 
 42.42         79 
 42.44         68 
 42.46         69 
 42.48         74 
 42.5          92 
 42.52         96 
 42.54         78 
 42.56         90 
 42.58         67 
 42.6          97 
 42.62         105 
 42.64         113 
 42.66         119 
 42.68         106 
 42.7          127 
 42.72         110 
 42.74         150 
 42.76         143 
 42.78         173 
 42.8          197 
 42.82         198 
 42.84         228 
 42.86         235 
 42.88         270 
 42.9          280 
 42.92         296 
 42.94         390 
 42.96         453 
 42.98         543 
 43            611 
 43.02         760 
 43.04         849 
 43.06         1096 
 43.08         1366 
 43.1          1712 
 43.12         2144 
 43.14         2824 
 43.16         3492 
 43.18         4320 
 43.2          5041 
 43.22         5609 
 43.24         5884 
 43.26         5800 
 43.28         5382 
 43.3          4790 
 43.32         4219 
 43.34         3658 
 43.36         3188 
 43.38         2696 
 43.4          2084 
 43.42         1618 
 43.44         1195 
 43.46         903 
 43.48         770 
 43.5          612 
 43.52         602 
 43.54         502 
 43.56         472 
 43.58         444 
 43.6          405 
 43.62         388 
 43.64         374 
 43.66         305 
 43.68         329 
 43.7          284 
 43.72         239 
 43.74         220 
 43.76         219 
 43.78         170 
 43.8          175 
 43.82         155 
 43.84         136 
 43.86         144 
 43.88         126 
 43.9          113 
 43.92         97 
 43.94         117 
 43.96         104 
 43.98         102 
 44            92 
 44.02         89 
 44.04         88 
 44.06         84 
 44.08         87 
 44.1          99 
 44.12         82 
 44.14         84 
 44.16         74 
 44.18         80 
 44.2          74 
 44.22         82 
 44.24         63 
 44.26         79 
 44.28         62 
 44.3          59 
 44.32         67 
 44.34         68 
 44.36         75 
 44.38         51 
 44.4          65 
 44.42         69 
 44.44         52 
 44.46         51 
 44.48         63 
 44.5          57 
 44.52         55 
 44.54         53 
 44.56         60 
 44.58         67 
 44.6          57 
 44.62         60 
 44.64         66 
 44.66         48 
 44.68         65 
 44.7          55 
 44.72         47 
 44.74         51 
 44.76         48 
 44.78         44 
 44.8          42 
 44.82         65 
 44.84         42 
 44.86         52 
 44.88         47 
 44.9          72 
 44.92         38 
 44.94         52 
 44.96         51 
 44.98         42 
 45            41 
 45.02         61 
 45.04         51 
 45.06         56 
 45.08         45 
 45.1          44 
 45.12         44 
 45.14         54 
 45.16         50 
 45.18         35 
 45.2          48 
 45.22         36 
 45.24         50 
 45.26         43 
 45.28         50 
 45.3          59 
 45.32         52 
 45.34         47 
 45.36         46 
 45.38         45 
 45.4          38 
 45.42         40 
 45.44         46 
 45.46         36 
 45.48         49 
 45.5          42 
 45.52         54 
 45.54         37 
 45.56         32 
 45.58         41 
 45.6          46 
 45.62         36 
 45.64         45 
 45.66         52 
 45.68         44 
 45.7          35 
 45.72         45 
 45.74         50 
 45.76         53 
 45.78         48 
 45.8          41 
 45.82         41 
 45.84         36 
 45.86         45 
 45.88         39 
 45.9          43 
 45.92         38 
 45.94         40 
 45.96         32 
 45.98         37 
 46            38 
 46.02         43 
 46.04         43 
 46.06         49 
 46.08         42 
 46.1          49 
 46.12         45 
 46.14         36 
 46.16         42 
 46.18         29 
 46.2          47 
 46.22         49 
 46.24         44 
 46.26         53 
 46.28         39 
 46.3          36 
 46.32         47 
 46.34         50 
 46.36         43 
 46.38         40 
 46.4          41 
 46.42         45 
 46.44         42 
 46.46         40 
 46.48         44 
 46.5          40 
 46.52         37 
 46.54         53 
 46.56         46 
 46.58         39 
 46.6          34 
 46.62         48 
 46.64         50 
 46.66         44 
 46.68         50 
 46.7          49 
 46.72         36 
 46.74         49 
 46.76         33 
 46.78         58 
 46.8          41 
 46.82         41 
 46.84         41 
 46.86         39 
 46.88         66 
 46.9          53 
 46.92         52 
 46.94         47 
 46.96         48 
 46.98         57 
 47            67 
 47.02         68 
 47.04         60 
 47.06         63 
 47.08         77 
 47.1          77 
 47.12         97 
 47.14         117 
 47.16         123 
 47.18         146 
 47.2          176 
 47.22         202 
 47.24         254 
 47.26         327 
 47.28         347 
 47.3          489 
 47.32         544 
 47.34         568 
 47.36         556 
 47.38         536 
 47.4          441 
 47.42         466 
 47.44         396 
 47.46         369 
 47.48         324 
 47.5          291 
 47.52         234 
 47.54         200 
 47.56         132 
 47.58         106 
 47.6          92 
 47.62         76 
 47.64         76 
 47.66         73 
 47.68         80 
 47.7          71 
 47.72         54 
 47.74         65 
 47.76         65 
 47.78         53 
 47.8          72 
 47.82         57 
 47.84         56 
 47.86         61 
 47.88         57 
 47.9          41 
 47.92         47 
 47.94         56 
 47.96         50 
 47.98         53 
 48            49 
 48.02         33 
 48.04         43 
 48.06         39 
 48.08         43 
 48.1          50 
 48.12         51 
 48.14         38 
 48.16         48 
 48.18         32 
 48.2          38 
 48.22         39 
 48.24         42 
 48.26         42 
 48.28         44 
 48.3          39 
 48.32         41 
 48.34         31 
 48.36         42 
 48.38         47 
 48.4          47 
 48.42         41 
 48.44         34 
 48.46         42 
 48.48         55 
 48.5          44 
 48.52         40 
 48.54         50 
 48.56         43 
 48.58         48 
 48.6          26 
 48.62         50 
 48.64         37 
 48.66         43 
 48.68         41 
 48.7          43 
 48.72         33 
 48.74         29 
 48.76         49 
 48.78         36 
 48.8          37 
 48.82         46 
 48.84         36 
 48.86         48 
 48.88         38 
 48.9          37 
 48.92         41 
 48.94         37 
 48.96         39 
 48.98         41 
 49            39 
 49.02         47 
 49.04         39 
 49.06         36 
 49.08         45 
 49.1          31 
 49.12         48 
 49.14         41 
 49.16         31 
 49.18         44 
 49.2          29 
 49.22         34 
 49.24         36 
 49.26         44 
 49.28         36 
 49.3          40 
 49.32         47 
 49.34         36 
 49.36         41 
 49.38         36 
 49.4          37 
 49.42         36 
 49.44         42 
 49.46         41 
 49.48         39 
 49.5          34 
 49.52         51 
 49.54         44 
 49.56         41 
 49.58         37 
 49.6          60 
 49.62         45 
 49.64         36 
 49.66         24 
 49.68         37 
 49.7          30 
 49.72         34 
 49.74         36 
 49.76         34 
 49.78         34 
 49.8          33 
 49.82         46 
 49.84         24 
 49.86         29 
 49.88         52 
 49.9          35 
 49.92         33 
 49.94         37 
 49.96         44 
 49.98         55 
 50            34 
 50.02         36 
 50.04         50 
 50.06         44 
 50.08         42 
 50.1          42 
 50.12         30 
 50.14         36 
 50.16         26 
 50.18         37 
 50.2          32 
 50.22         41 
 50.24         36 
 50.26         43 
 50.28         32 
 50.3          37 
 50.32         39 
 50.34         37 
 50.36         30 
 50.38         44 
 50.4          41 
 50.42         46 
 50.44         42 
 50.46         52 
 50.48         51 
 50.5          44 
 50.52         54 
 50.54         47 
 50.56         61 
 50.58         46 
 50.6          54 
 50.62         51 
 50.64         57 
 50.66         45 
 50.68         57 
 50.7          60 
 50.72         62 
 50.74         43 
 50.76         48 
 50.78         45 
 50.8          39 
 50.82         36 
 50.84         63 
 50.86         40 
 50.88         43 
 50.9          45 
 50.92         38 
 50.94         27 
 50.96         40 
 50.98         36 
 51            42 
 51.02         35 
 51.04         42 
 51.06         29 
 51.08         30 
 51.1          31 
 51.12         45 
 51.14         29 
 51.16         36 
 51.18         38 
 51.2          42 
 51.22         44 
 51.24         31 
 51.26         40 
 51.28         39 
 51.3          30 
 51.32         25 
 51.34         35 
 51.36         38 
 51.38         43 
 51.4          24 
 51.42         38 
 51.44         28 
 51.46         40 
 51.48         40 
 51.5          40 
 51.52         33 
 51.54         35 
 51.56         47 
 51.58         48 
 51.6          36 
 51.62         38 
 51.64         26 
 51.66         34 
 51.68         48 
 51.7          27 
 51.72         39 
 51.74         42 
 51.76         37 
 51.78         31 
 51.8          35 
 51.82         29 
 51.84         42 
 51.86         40 
 51.88         42 
 51.9          26 
 51.92         31 
 51.94         33 
 51.96         40 
 51.98         30 
 52            36 
 52.02         36 
 52.04         37 
 52.06         47 
 52.08         35 
 52.1          30 
 52.12         40 
 52.14         38 
 52.16         35 
 52.18         35 
 52.2          38 
 52.22         40 
 52.24         34 
 52.26         37 
 52.28         38 
 52.3          43 
 52.32         27 
 52.34         31 
 52.36         40 
 52.38         32 
 52.4          35 
 52.42         41 
 52.44         34 
 52.46         28 
 52.48         41 
 52.5          45 
 52.52         35 
 52.54         37 
 52.56         30 
 52.58         35 
 52.6          40 
 52.62         28 
 52.64         39 
 52.66         34 
 52.68         30 
 52.7          38 
 52.72         42 
 52.74         41 
 52.76         40 
 52.78         33 
 52.8          34 
 52.82         33 
 52.84         42 
 52.86         42 
 52.88         46 
 52.9          31 
 52.92         41 
 52.94         50 
 52.96         34 
 52.98         50 
 53            29 
 53.02         52 
 53.04         48 
 53.06         35 
 53.08         50 
 53.1          49 
 53.12         50 
 53.14         56 
 53.16         58 
 53.18         57 
 53.2          73 
 53.22         58 
 53.24         50 
 53.26         74 
 53.28         50 
 53.3          67 
 53.32         71 
 53.34         58 
 53.36         49 
 53.38         61 
 53.4          58 
 53.42         51 
 53.44         56 
 53.46         47 
 53.48         56 
 53.5          42 
 53.52         45 
 53.54         41 
 53.56         41 
 53.58         50 
 53.6          50 
 53.62         46 
 53.64         43 
 53.66         42 
 53.68         46 
 53.7          33 
 53.72         38 
 53.74         43 
 53.76         46 
 53.78         51 
 53.8          28 
 53.82         43 
 53.84         47 
 53.86         43 
 53.88         43 
 53.9          44 
 53.92         35 
 53.94         27 
 53.96         32 
 53.98         45 
 54            37 
 54.02         43 
 54.04         48 
 54.06         40 
 54.08         41 
 54.1          53 
 54.12         45 
 54.14         50 
 54.16         61 
 54.18         54 
 54.2          61 
 54.22         70 
 54.24         77 
 54.26         78 
 54.28         66 
 54.3          95 
 54.32         88 
 54.34         84 
 54.36         94 
 54.38         112 
 54.4          70 
 54.42         93 
 54.44         79 
 54.46         68 
 54.48         55 
 54.5          61 
 54.52         54 
 54.54         71 
 54.56         39 
 54.58         51 
 54.6          51 
 54.62         41 
 54.64         59 
 54.66         45 
 54.68         35 
 54.7          52 
 54.72         47 
 54.74         47 
 54.76         45 
 54.78         40 
 54.8          37 
 54.82         50 
 54.84         39 
 54.86         41 
 54.88         40 
 54.9          45 
 54.92         47 
 54.94         52 
 54.96         39 
 54.98         41 
 55            39 
 55.02         41 
 55.04         39 
 55.06         43 
 55.08         44 
 55.1          48 
 55.12         39 
 55.14         44 
 55.16         42 
 55.18         43 
 55.2          41 
 55.22         34 
 55.24         35 
 55.26         55 
 55.28         30 
 55.3          36 
 55.32         42 
 55.34         59 
 55.36         44 
 55.38         47 
 55.4          50 
 55.42         52 
 55.44         41 
 55.46         41 
 55.48         48 
 55.5          41 
 55.52         50 
 55.54         43 
 55.56         45 
 55.58         39 
 55.6          37 
 55.62         37 
 55.64         37 
 55.66         35 
 55.68         47 
 55.7          56 
 55.72         53 
 55.74         48 
 55.76         50 
 55.78         34 
 55.8          44 
 55.82         46 
 55.84         48 
 55.86         61 
 55.88         53 
 55.9          45 
 55.92         55 
 55.94         37 
 55.96         44 
 55.98         58 
 56            50 
 56.02         47 
 56.04         49 
 56.06         49 
 56.08         48 
 56.1          53 
 56.12         59 
 56.14         71 
 56.16         56 
 56.18         65 
 56.2          50 
 56.22         45 
 56.24         50 
 56.26         62 
 56.28         52 
 56.3          53 
 56.32         55 
 56.34         70 
 56.36         67 
 56.38         57 
 56.4          64 
 56.42         59 
 56.44         40 
 56.46         49 
 56.48         71 
 56.5          58 
 56.52         71 
 56.54         53 
 56.56         80 
 56.58         73 
 56.6          63 
 56.62         74 
 56.64         84 
 56.66         89 
 56.68         106 
 56.7          79 
 56.72         75 
 56.74         102 
 56.76         103 
 56.78         89 
 56.8          86 
 56.82         108 
 56.84         102 
 56.86         153 
 56.88         131 
 56.9          156 
 56.92         190 
 56.94         167 
 56.96         193 
 56.98         241 
 57            238 
 57.02         311 
 57.04         380 
 57.06         495 
 57.08         651 
 57.1          814 
 57.12         993 
 57.14         1223 
 57.16         1431 
 57.18         1490 
 57.2          1594 
 57.22         1562 
 57.24         1401 
 57.26         1276 
 57.28         1108 
 57.3          1108 
 57.32         1005 
 57.34         982 
 57.36         876 
 57.38         771 
 57.4          626 
 57.42         516 
 57.44         428 
 57.46         288 
 57.48         255 
 57.5          203 
 57.52         163 
 57.54         180 
 57.56         137 
 57.58         128 
 57.6          122 
 57.62         114 
 57.64         89 
 57.66         103 
 57.68         109 
 57.7          103 
 57.72         101 
 57.74         93 
 57.76         86 
 57.78         75 
 57.8          81 
 57.82         71 
 57.84         59 
 57.86         74 
 57.88         67 
 57.9          57 
 57.92         56 
 57.94         64 
 57.96         57 
 57.98         51 
 58            51 
 58.02         42 
 58.04         50 
 58.06         54 
 58.08         55 
 58.1          53 
 58.12         42 
 58.14         53 
 58.16         55 
 58.18         51 
 58.2          69 
 58.22         71 
 58.24         56 
 58.26         58 
 58.28         61 
 58.3          53 
 58.32         49 
 58.34         54 
 58.36         55 
 58.38         33 
 58.4          44 
 58.42         43 
 58.44         61 
 58.46         44 
 58.48         44 
 58.5          49 
 58.52         47 
 58.54         53 
 58.56         56 
 58.58         51 
 58.6          54 
 58.62         45 
 58.64         41 
 58.66         50 
 58.68         46 
 58.7          48 
 58.72         39 
 58.74         47 
 58.76         48 
 58.78         59 
 58.8          56 
 58.82         57 
 58.84         47 
 58.86         57 
 58.88         43 
 58.9          42 
 58.92         52 
 58.94         45 
 58.96         45 
 58.98         41 
 59            49 
 59.02         59 
 59.04         45 
 59.06         48 
 59.08         43 
 59.1          43 
 59.12         52 
 59.14         44 
 59.16         54 
 59.18         37 
 59.2          56 
 59.22         61 
 59.24         43 
 59.26         45 
 59.28         45 
 59.3          47 
 59.32         44 
 59.34         53 
 59.36         41 
 59.38         45 
 59.4          39 
 59.42         45 
 59.44         40 
 59.46         55 
 59.48         41 
 59.5          48 
 59.52         40 
 59.54         47 
 59.56         49 
 59.58         43 
 59.6          54 
 59.62         47 
 59.64         45 
 59.66         49 
 59.68         56 
 59.7          55 
 59.72         42 
 59.74         47 
 59.76         38 
 59.78         48 
 59.8          51 
 59.82         60 
 59.84         50 
 59.86         58 
 59.88         34 
 59.9          42 
 59.92         52 
 59.94         40 
 59.96         52 
 59.98         49 
 60            52 
 60.02         44 
 60.04         38 
 60.06         42 
 60.08         45 
 60.1          48 
 60.12         50 
 60.14         46 
 60.16         55 
 60.18         40 
 60.2          48 
 60.22         38 
 60.24         49 
 60.26         37 
 60.28         49 
 60.3          50 
 60.32         39 
 60.34         36 
 60.36         47 
 60.38         47 
 60.4          39 
 60.42         43 
 60.44         36 
 60.46         51 
 60.48         48 
 60.5          46 
 60.52         52 
 60.54         48 
 60.56         57 
 60.58         48 
 60.6          44 
 60.62         37 
 60.64         46 
 60.66         42 
 60.68         41 
 60.7          59 
 60.72         45 
 60.74         36 
 60.76         52 
 60.78         50 
 60.8          49 
 60.82         51 
 60.84         42 
 60.86         47 
 60.88         55 
 60.9          46 
 60.92         51 
 60.94         55 
 60.96         60 
 60.98         50 
 61            53 
 61.02         30 
 61.04         48 
 61.06         54 
 61.08         44 
 61.1          34 
 61.12         55 
 61.14         32 
 61.16         45 
 61.18         51 
 61.2          48 
 61.22         42 
 61.24         63 
 61.26         58 
 61.28         43 
 61.3          39 
 61.32         47 
 61.34         31 
 61.36         51 
 61.38         46 
 61.4          54 
 61.42         46 
 61.44         62 
 61.46         51 
 61.48         53 
 61.5          59 
 61.52         53 
 61.54         63 
 61.56         67 
 61.58         49 
 61.6          72 
 61.62         59 
 61.64         45 
 61.66         64 
 61.68         64 
 61.7          57 
 61.72         48 
 61.74         60 
 61.76         45 
 61.78         62 
 61.8          63 
 61.82         63 
 61.84         58 
 61.86         56 
 61.88         67 
 61.9          53 
 61.92         61 
 61.94         58 
 61.96         58 
 61.98         65 
 62            56 
 62.02         54 
 62.04         62 
 62.06         60 
 62.08         78 
 62.1          77 
 62.12         70 
 62.14         97 
 62.16         72 
 62.18         82 
 62.2          88 
 62.22         99 
 62.24         80 
 62.26         94 
 62.28         82 
 62.3          90 
 62.32         108 
 62.34         116 
 62.36         107 
 62.38         106 
 62.4          139 
 62.42         132 
 62.44         147 
 62.46         176 
 62.48         198 
 62.5          216 
 62.52         251 
 62.54         257 
 62.56         268 
 62.58         306 
 62.6          319 
 62.62         435 
 62.64         485 
 62.66         663 
 62.68         860 
 62.7          1146 
 62.72         1409 
 62.74         1757 
 62.76         2201 
 62.78         2568 
 62.8          2748 
 62.82         2831 
 62.84         2786 
 62.86         2511 
 62.88         2166 
 62.9          1907 
 62.92         1741 
 62.94         1673 
 62.96         1731 
 62.98         1698 
 63            1540 
 63.02         1338 
 63.04         1062 
 63.06         877 
 63.08         669 
 63.1          528 
 63.12         435 
 63.14         381 
 63.16         318 
 63.18         268 
 63.2          226 
 63.22         242 
 63.24         214 
 63.26         196 
 63.28         190 
 63.3          193 
 63.32         158 
 63.34         200 
 63.36         181 
 63.38         170 
 63.4          192 
 63.42         196 
 63.44         161 
 63.46         162 
 63.48         140 
 63.5          162 
 63.52         137 
 63.54         121 
 63.56         132 
 63.58         112 
 63.6          129 
 63.62         109 
 63.64         106 
 63.66         90 
 63.68         100 
 63.7          100 
 63.72         92 
 63.74         76 
 63.76         74 
 63.78         64 
 63.8          77 
 63.82         89 
 63.84         60 
 63.86         70 
 63.88         72 
 63.9          62 
 63.92         64 
 63.94         77 
 63.96         62 
 63.98         71 
 64            63 
 64.02         68 
 64.04         56 
 64.06         69 
 64.08         61 
 64.1          66 
 64.12         65 
 64.14         56 
 64.16         59 
 64.18         71 
 64.2          62 
 64.22         56 
 64.24         57 
 64.26         63 
 64.28         53 
 64.3          61 
 64.32         52 
 64.34         62 
 64.36         60 
 64.38         66 
 64.4          65 
 64.42         64 
 64.44         52 
 64.46         46 
 64.48         62 
 64.5          38 
 64.52         52 
 64.54         56 
 64.56         46 
 64.58         47 
 64.6          49 
 64.62         54 
 64.64         55 
 64.66         44 
 64.68         42 
 64.7          54 
 64.72         60 
 64.74         46 
 64.76         44 
 64.78         51 
 64.8          61 
 64.82         55 
 64.84         60 
 64.86         39 
 64.88         58 
 64.9          56 
 64.92         44 
 64.94         61 
 64.96         51 
 64.98         51 
 65            53 
 65.02         51 
 65.04         41 
 65.06         54 
 65.08         51 
 65.1          57 
 65.12         46 
 65.14         64 
 65.16         42 
 65.18         38 
 65.2          55 
 65.22         49 
 65.24         50 
 65.26         55 
 65.28         50 
 65.3          57 
 65.32         51 
 65.34         54 
 65.36         62 
 65.38         50 
 65.4          51 
 65.42         45 
 65.44         68 
 65.46         54 
 65.48         66 
 65.5          51 
 65.52         55 
 65.54         63 
 65.56         57 
 65.58         57 
 65.6          63 
 65.62         66 
 65.64         80 
 65.66         84 
 65.68         90 
 65.7          97 
 65.72         91 
 65.74         94 
 65.76         115 
 65.78         109 
 65.8          144 
 65.82         132 
 65.84         147 
 65.86         175 
 65.88         208 
 65.9          244 
 65.92         312 
 65.94         386 
 65.96         503 
 65.98         629 
 66            733 
 66.02         840 
 66.04         965 
 66.06         965 
 66.08         912 
 66.1          758 
 66.12         733 
 66.14         628 
 66.16         552 
 66.18         538 
 66.2          544 
 66.22         574 
 66.24         563 
 66.26         483 
 66.28         412 
 66.3          360 
 66.32         248 
 66.34         207 
 66.36         164 
 66.38         146 
 66.4          120 
 66.42         108 
 66.44         103 
 66.46         72 
 66.48         86 
 66.5          81 
 66.52         74 
 66.54         71 
 66.56         57 
 66.58         74 
 66.6          77 
 66.62         69 
 66.64         78 
 66.66         67 
 66.68         56 
 66.7          55 
 66.72         59 
 66.74         77 
 66.76         67 
 66.78         57 
 66.8          54 
 66.82         63 
 66.84         61 
 66.86         51 
 66.88         70 
 66.9          54 
 66.92         65 
 66.94         64 
 66.96         53 
 66.98         55 
 67            59 
 67.02         54 
 67.04         54 
 67.06         44 
 67.08         55 
 67.1          59 
 67.12         54 
 67.14         33 
 67.16         44 
 67.18         43 
 67.2          46 
 67.22         46 
 67.24         62 
 67.26         26 
 67.28         60 
 67.3          51 
 67.32         45 
 67.34         46 
 67.36         52 
 67.38         41 
 67.4          39 
 67.42         44 
 67.44         41 
 67.46         40 
 67.48         56 
 67.5          39 
 67.52         56 
 67.54         42 
 67.56         38 
 67.58         29 
 67.6          58 
 67.62         29 
 67.64         40 
 67.66         42 
 67.68         36 
 67.7          35 
 67.72         38 
 67.74         42 
 67.76         33 
 67.78         35 
 67.8          47 
 67.82         30 
 67.84         45 
 67.86         48 
 67.88         27 
 67.9          45 
 67.92         36 
 67.94         34 
 67.96         38 
 67.98         30 
 68            38 
 68.02         31 
 68.04         43 
 68.06         34 
 68.08         42 
 68.1          47 
 68.12         40 
 68.14         40 
 68.16         43 
 68.18         36 
 68.2          45 
 68.22         46 
 68.24         35 
 68.26         23 
 68.28         38 
 68.3          35 
 68.32         35 
 68.34         46 
 68.36         35 
 68.38         57 
 68.4          43 
 68.42         44 
 68.44         28 
 68.46         26 
 68.48         33 
 68.5          50 
 68.52         32 
 68.54         37 
 68.56         34 
 68.58         33 
 68.6          33 
 68.62         34 
 68.64         35 
 68.66         44 
 68.68         32 
 68.7          38 
 68.72         43 
 68.74         44 
 68.76         44 
 68.78         29 
 68.8          39 
 68.82         40 
 68.84         36 
 68.86         44 
 68.88         45 
 68.9          38 
 68.92         29 
 68.94         40 
 68.96         44 
 68.98         40 
 69            50 
 69.02         49 
 69.04         51 
 69.06         53 
 69.08         54 
 69.1          60 
 69.12         56 
 69.14         38 
 69.16         39 
 69.18         49 
 69.2          44 
 69.22         38 
 69.24         40 
 69.26         43 
 69.28         44 
 69.3          42 
 69.32         34 
 69.34         27 
 69.36         29 
 69.38         41 
 69.4          35 
 69.42         37 
 69.44         26 
 69.46         31 
 69.48         35 
 69.5          31 
 69.52         40 
 69.54         28 
 69.56         43 
 69.58         40 
 69.6          35 
 69.62         42 
 69.64         30 
 69.66         34 
 69.68         35 
 69.7          37 
 69.72         42 
 69.74         39 
 69.76         44 
 69.78         39 
 69.8          41 
 69.82         37 
 69.84         53 
 69.86         29 
 69.88         42 
 69.9          28 
 69.92         34 
 69.94         33 
 69.96         34 
 69.98         45 
 70            34 
 70.02         37 
 70.04         41 
 70.06         44 
 70.08         38 
 70.1          34 
 70.12         33 
 70.14         36 
 70.16         39 
 70.18         38 
 70.2          26 
 70.22         30 
 70.24         30 
 70.26         29 
 70.28         40 
 70.3          50 
 70.32         20 
 70.34         34 
 70.36         30 
 70.38         37 
 70.4          39 
 70.42         28 
 70.44         35 
 70.46         33 
 70.48         33 
 70.5          24 
 70.52         41 
 70.54         22 
 70.56         31 
 70.58         27 
 70.6          35 
 70.62         43 
 70.64         38 
 70.66         34 
 70.68         41 
 70.7          39 
 70.72         35 
 70.74         28 
 70.76         31 
 70.78         30 
 70.8          33 
 70.82         38 
 70.84         35 
 70.86         39 
 70.88         25 
 70.9          34 
 70.92         31 
 70.94         23 
 70.96         34 
 70.98         40 
 71            32 
 71.02         34 
 71.04         39 
 71.06         36 
 71.08         36 
 71.1          38 
 71.12         28 
 71.14         34 
 71.16         43 
 71.18         40 
 71.2          33 
 71.22         30 
 71.24         34 
 71.26         36 
 71.28         26 
 71.3          22 
 71.32         36 
 71.34         36 
 71.36         26 
 71.38         27 
 71.4          29 
 71.42         23 
 71.44         30 
 71.46         42 
 71.48         22 
 71.5          32 
 71.52         34 
 71.54         40 
 71.56         28 
 71.58         19 
 71.6          33 
 71.62         32 
 71.64         31 
 71.66         25 
 71.68         31 
 71.7          31 
 71.72         29 
 71.74         31 
 71.76         31 
 71.78         26 
 71.8          36 
 71.82         39 
 71.84         25 
 71.86         29 
 71.88         23 
 71.9          32 
 71.92         40 
 71.94         40 
 71.96         23 
 71.98         21 
 72            36 
 72.02         34 
 72.04         22 
 72.06         23 
 72.08         25 
 72.1          35 
 72.12         28 
 72.14         31 
 72.16         29 
 72.18         38 
 72.2          39 
 72.22         32 
 72.24         37 
 72.26         34 
 72.28         23 
 72.3          32 
 72.32         28 
 72.34         33 
 72.36         39 
 72.38         43 
 72.4          30 
 72.42         30 
 72.44         32 
 72.46         34 
 72.48         38 
 72.5          35 
 72.52         27 
 72.54         35 
 72.56         32 
 72.58         25 
 72.6          31 
 72.62         36 
 72.64         33 
 72.66         35 
 72.68         36 
 72.7          23 
 72.72         21 
 72.74         33 
 72.76         32 
 72.78         24 
 72.8          19 
 72.82         25 
 72.84         39 
 72.86         33 
 72.88         39 
 72.9          32 
 72.92         29 
 72.94         30 
 72.96         35 
 72.98         27 
 73            29 
 73.02         25 
 73.04         33 
 73.06         29 
 73.08         35 
 73.1          35 
 73.12         35 
 73.14         33 
 73.16         32 
 73.18         37 
 73.2          23 
 73.22         35 
 73.24         38 
 73.26         37 
 73.28         39 
 73.3          34 
 73.32         33 
 73.34         40 
 73.36         28 
 73.38         32 
 73.4          22 
 73.42         31 
 73.44         39 
 73.46         31 
 73.48         27 
 73.5          32 
 73.52         22 
 73.54         40 
 73.56         37 
 73.58         45 
 73.6          26 
 73.62         33 
 73.64         33 
 73.66         40 
 73.68         45 
 73.7          48 
 73.72         37 
 73.74         41 
 73.76         31 
 73.78         47 
 73.8          49 
 73.82         33 
 73.84         48 
 73.86         36 
 73.88         51 
 73.9          31 
 73.92         44 
 73.93999      54 
 73.96         43 
 73.98         47 
 74            55 
 74.02         48 
 74.04         46 
 74.06         52 
 74.08         68 
 74.1          70 
 74.12         73 
 74.14         88 
 74.16         87 
 74.18         87 
 74.2          117 
 74.22         134 
 74.24         163 
 74.26         201 
 74.28         265 
 74.3          278 
 74.32         283 
 74.34         321 
 74.36         277 
 74.38         287 
 74.4          211 
 74.42         210 
 74.43999      201 
 74.46         166 
 74.48         175 
 74.5          213 
 74.52         182 
 74.54         189 
 74.56         199 
 74.58         160 
 74.6          141 
 74.62         121 
 74.64         75 
 74.66         91 
 74.68         73 
 74.7          66 
 74.72         67 
 74.74         61 
 74.76         59 
 74.78         53 
 74.8          50 
 74.82         45 
 74.84         43 
 74.86         60 
 74.88         34 
 74.9          46 
 74.92         39 
 74.93999      43 
 74.96         43 
 74.98         43 
 75            49 
