LTO 12h 800  Original Data
 3151 
 12            255 
 12.02         304 
 12.04         279 
 12.06         281 
 12.08         261 
 12.1          260 
 12.12         240 
 12.14         277 
 12.16         303 
 12.18         275 
 12.2          277 
 12.22         279 
 12.24         271 
 12.26         268 
 12.28         282 
 12.3          256 
 12.32         284 
 12.34         258 
 12.36         270 
 12.38         252 
 12.4          286 
 12.42         281 
 12.44         292 
 12.46         297 
 12.48         274 
 12.5          273 
 12.52         270 
 12.54         279 
 12.56         263 
 12.58         255 
 12.6          248 
 12.62         292 
 12.64         302 
 12.66         266 
 12.68         260 
 12.7          282 
 12.72         266 
 12.74         246 
 12.76         288 
 12.78         278 
 12.8          294 
 12.82         303 
 12.84         289 
 12.86         275 
 12.88         291 
 12.9          286 
 12.92         261 
 12.94         240 
 12.96         247 
 12.98         241 
 13            266 
 13.02         248 
 13.04         250 
 13.06         254 
 13.08         268 
 13.1          263 
 13.12         261 
 13.14         288 
 13.16         253 
 13.18         256 
 13.2          253 
 13.22         261 
 13.24         257 
 13.26         261 
 13.28         239 
 13.3          252 
 13.32         273 
 13.34         290 
 13.36         220 
 13.38         256 
 13.4          236 
 13.42         239 
 13.44         262 
 13.46         231 
 13.48         288 
 13.5          210 
 13.52         251 
 13.54         230 
 13.56         224 
 13.58         229 
 13.6          249 
 13.62         281 
 13.64         209 
 13.66         223 
 13.68         241 
 13.7          233 
 13.72         223 
 13.74         226 
 13.76         246 
 13.78         238 
 13.8          229 
 13.82         232 
 13.84         228 
 13.86         212 
 13.88         226 
 13.9          202 
 13.92         212 
 13.94         211 
 13.96         225 
 13.98         211 
 14            209 
 14.02         228 
 14.04         224 
 14.06         195 
 14.08         204 
 14.1          195 
 14.12         202 
 14.14         193 
 14.16         199 
 14.18         235 
 14.2          207 
 14.22         206 
 14.24         201 
 14.26         240 
 14.28         212 
 14.3          234 
 14.32         211 
 14.34         195 
 14.36         162 
 14.38         191 
 14.4          187 
 14.42         175 
 14.44         210 
 14.46         188 
 14.48         180 
 14.5          188 
 14.52         194 
 14.54         170 
 14.56         206 
 14.58         178 
 14.6          184 
 14.62         185 
 14.64         213 
 14.66         177 
 14.68         193 
 14.7          179 
 14.72         199 
 14.74         159 
 14.76         185 
 14.78         169 
 14.8          182 
 14.82         179 
 14.84         178 
 14.86         159 
 14.88         194 
 14.9          180 
 14.92         163 
 14.94         161 
 14.96         178 
 14.98         191 
 15            157 
 15.02         204 
 15.04         195 
 15.06         184 
 15.08         183 
 15.1          171 
 15.12         170 
 15.14         177 
 15.16         190 
 15.18         167 
 15.2          180 
 15.22         182 
 15.24         173 
 15.26         153 
 15.28         153 
 15.3          148 
 15.32         176 
 15.34         152 
 15.36         164 
 15.38         161 
 15.4          165 
 15.42         142 
 15.44         144 
 15.46         152 
 15.48         163 
 15.5          153 
 15.52         151 
 15.54         169 
 15.56         156 
 15.58         122 
 15.6          129 
 15.62         143 
 15.64         156 
 15.66         159 
 15.68         162 
 15.7          162 
 15.72         162 
 15.74         158 
 15.76         157 
 15.78         137 
 15.8          155 
 15.82         152 
 15.84         155 
 15.86         164 
 15.88         153 
 15.9          157 
 15.92         147 
 15.94         163 
 15.96         141 
 15.98         149 
 16            153 
 16.02         146 
 16.04         134 
 16.06         154 
 16.08         163 
 16.1          134 
 16.12         133 
 16.14         140 
 16.16         141 
 16.18         137 
 16.2          126 
 16.22         139 
 16.24         126 
 16.26         133 
 16.28         139 
 16.3          135 
 16.32         142 
 16.34         142 
 16.36         139 
 16.38         131 
 16.4          131 
 16.42         142 
 16.44         142 
 16.46         140 
 16.48         139 
 16.5          123 
 16.52         133 
 16.54         145 
 16.56         145 
 16.58         141 
 16.6          144 
 16.62         143 
 16.64         124 
 16.66         138 
 16.68         142 
 16.7          122 
 16.72         143 
 16.74         149 
 16.76         134 
 16.78         128 
 16.8          121 
 16.82         122 
 16.84         149 
 16.86         139 
 16.88         121 
 16.9          135 
 16.92         151 
 16.94         142 
 16.96         161 
 16.98         108 
 17            121 
 17.02         149 
 17.04         155 
 17.06         141 
 17.08         143 
 17.1          157 
 17.12         135 
 17.14         143 
 17.16         141 
 17.18         156 
 17.2          128 
 17.22         132 
 17.24         148 
 17.26         135 
 17.28         139 
 17.3          142 
 17.32         134 
 17.34         144 
 17.36         128 
 17.38         123 
 17.4          129 
 17.42         116 
 17.44         136 
 17.46         154 
 17.48         158 
 17.5          136 
 17.52         113 
 17.54         138 
 17.56         120 
 17.58         140 
 17.6          153 
 17.62         149 
 17.64         148 
 17.66         146 
 17.68         178 
 17.7          160 
 17.72         143 
 17.74         144 
 17.76         184 
 17.78         168 
 17.8          189 
 17.82         211 
 17.84         200 
 17.86         248 
 17.88         244 
 17.9          293 
 17.92         270 
 17.94         342 
 17.96         394 
 17.98         389 
 18            464 
 18.02         577 
 18.04         608 
 18.06         691 
 18.08         764 
 18.1          915 
 18.12         1100 
 18.14         1162 
 18.16         1361 
 18.18         1629 
 18.2          1951 
 18.22         2217 
 18.24         2719 
 18.26         3117 
 18.28         3970 
 18.3          4669 
 18.32         5568 
 18.34         6675 
 18.36         7635 
 18.38         8892 
 18.4          9748 
 18.42         10494 
 18.44         10123 
 18.46         9368 
 18.48         7682 
 18.5          5993 
 18.52         4062 
 18.54         2733 
 18.56         1619 
 18.58         1038 
 18.6          719 
 18.62         519 
 18.64         409 
 18.66         362 
 18.68         276 
 18.7          292 
 18.72         248 
 18.74         256 
 18.76         218 
 18.78         191 
 18.8          160 
 18.82         192 
 18.84         159 
 18.86         158 
 18.88         135 
 18.9          167 
 18.92         150 
 18.94         139 
 18.96         130 
 18.98         153 
 19            142 
 19.02         131 
 19.04         93 
 19.06         160 
 19.08         132 
 19.1          119 
 19.12         127 
 19.14         141 
 19.16         148 
 19.18         138 
 19.2          133 
 19.22         125 
 19.24         122 
 19.26         121 
 19.28         129 
 19.3          114 
 19.32         113 
 19.34         110 
 19.36         114 
 19.38         146 
 19.4          127 
 19.42         119 
 19.44         129 
 19.46         118 
 19.48         122 
 19.5          99 
 19.52         150 
 19.54         118 
 19.56         113 
 19.58         116 
 19.6          136 
 19.62         109 
 19.64         130 
 19.66         121 
 19.68         123 
 19.7          129 
 19.72         114 
 19.74         117 
 19.76         122 
 19.78         121 
 19.8          140 
 19.82         107 
 19.84         109 
 19.86         114 
 19.88         129 
 19.9          110 
 19.92         101 
 19.94         120 
 19.96         117 
 19.98         116 
 20            102 
 20.02         108 
 20.04         144 
 20.06         119 
 20.08         128 
 20.1          124 
 20.12         134 
 20.14         118 
 20.16         121 
 20.18         109 
 20.2          113 
 20.22         133 
 20.24         116 
 20.26         125 
 20.28         125 
 20.3          132 
 20.32         122 
 20.34         130 
 20.36         122 
 20.38         120 
 20.4          113 
 20.42         127 
 20.44         129 
 20.46         117 
 20.48         124 
 20.5          116 
 20.52         124 
 20.54         141 
 20.56         117 
 20.58         122 
 20.6          113 
 20.62         114 
 20.64         127 
 20.66         119 
 20.68         130 
 20.7          129 
 20.72         121 
 20.74         104 
 20.76         109 
 20.78         117 
 20.8          105 
 20.82         147 
 20.84         128 
 20.86         116 
 20.88         139 
 20.9          109 
 20.92         103 
 20.94         105 
 20.96         134 
 20.98         109 
 21            121 
 21.02         119 
 21.04         116 
 21.06         107 
 21.08         125 
 21.1          134 
 21.12         114 
 21.14         128 
 21.16         116 
 21.18         120 
 21.2          119 
 21.22         124 
 21.24         115 
 21.26         135 
 21.28         112 
 21.3          131 
 21.32         126 
 21.34         107 
 21.36         114 
 21.38         136 
 21.4          116 
 21.42         114 
 21.44         113 
 21.46         113 
 21.48         100 
 21.5          127 
 21.52         90 
 21.54         107 
 21.56         120 
 21.58         119 
 21.6          120 
 21.62         122 
 21.64         113 
 21.66         107 
 21.68         109 
 21.7          124 
 21.72         137 
 21.74         124 
 21.76         118 
 21.78         118 
 21.8          123 
 21.82         113 
 21.84         127 
 21.86         115 
 21.88         131 
 21.9          129 
 21.92         104 
 21.94         123 
 21.96         120 
 21.98         144 
 22            93 
 22.02         119 
 22.04         106 
 22.06         138 
 22.08         121 
 22.1          125 
 22.12         109 
 22.14         119 
 22.16         120 
 22.18         115 
 22.2          118 
 22.22         125 
 22.24         127 
 22.26         124 
 22.28         111 
 22.3          121 
 22.32         130 
 22.34         97 
 22.36         100 
 22.38         108 
 22.4          112 
 22.42         115 
 22.44         111 
 22.46         133 
 22.48         99 
 22.5          109 
 22.52         115 
 22.54         106 
 22.56         114 
 22.58         108 
 22.6          124 
 22.62         125 
 22.64         106 
 22.66         116 
 22.68         109 
 22.7          107 
 22.72         104 
 22.74         125 
 22.76         112 
 22.78         106 
 22.8          109 
 22.82         111 
 22.84         111 
 22.86         115 
 22.88         128 
 22.9          130 
 22.92         118 
 22.94         120 
 22.96         116 
 22.98         114 
 23            106 
 23.02         136 
 23.04         117 
 23.06         125 
 23.08         103 
 23.1          107 
 23.12         120 
 23.14         113 
 23.16         133 
 23.18         99 
 23.2          107 
 23.22         115 
 23.24         121 
 23.26         103 
 23.28         118 
 23.3          111 
 23.32         100 
 23.34         114 
 23.36         118 
 23.38         135 
 23.4          124 
 23.42         143 
 23.44         140 
 23.46         105 
 23.48         114 
 23.5          119 
 23.52         103 
 23.54         135 
 23.56         136 
 23.58         108 
 23.6          111 
 23.62         116 
 23.64         119 
 23.66         104 
 23.68         127 
 23.7          114 
 23.72         123 
 23.74         103 
 23.76         104 
 23.78         112 
 23.8          120 
 23.82         106 
 23.84         111 
 23.86         122 
 23.88         109 
 23.9          110 
 23.92         107 
 23.94         131 
 23.96         121 
 23.98         111 
 24            114 
 24.02         130 
 24.04         106 
 24.06         134 
 24.08         105 
 24.1          117 
 24.12         123 
 24.14         110 
 24.16         113 
 24.18         120 
 24.2          135 
 24.22         118 
 24.24         124 
 24.26         98 
 24.28         119 
 24.3          114 
 24.32         121 
 24.34         130 
 24.36         115 
 24.38         91 
 24.4          107 
 24.42         111 
 24.44         118 
 24.46         121 
 24.48         112 
 24.5          125 
 24.52         120 
 24.54         117 
 24.56         132 
 24.58         102 
 24.6          118 
 24.62         100 
 24.64         121 
 24.66         95 
 24.68         104 
 24.7          81 
 24.72         117 
 24.74         108 
 24.76         98 
 24.78         93 
 24.8          116 
 24.82         117 
 24.84         96 
 24.86         117 
 24.88         121 
 24.9          113 
 24.92         112 
 24.94         110 
 24.96         122 
 24.98         129 
 25            111 
 25.02         105 
 25.04         114 
 25.06         120 
 25.08         111 
 25.1          104 
 25.12         105 
 25.14         114 
 25.16         122 
 25.18         125 
 25.2          139 
 25.22         107 
 25.24         121 
 25.26         117 
 25.28         119 
 25.3          120 
 25.32         120 
 25.34         118 
 25.36         108 
 25.38         121 
 25.4          119 
 25.42         111 
 25.44         127 
 25.46         113 
 25.48         101 
 25.5          119 
 25.52         128 
 25.54         96 
 25.56         120 
 25.58         119 
 25.6          121 
 25.62         121 
 25.64         112 
 25.66         108 
 25.68         120 
 25.7          110 
 25.72         134 
 25.74         114 
 25.76         130 
 25.78         114 
 25.8          118 
 25.82         119 
 25.84         123 
 25.86         113 
 25.88         129 
 25.9          118 
 25.92         112 
 25.94         108 
 25.96         116 
 25.98         104 
 26            136 
 26.02         105 
 26.04         128 
 26.06         133 
 26.08         131 
 26.1          119 
 26.12         124 
 26.14         128 
 26.16         105 
 26.18         121 
 26.2          135 
 26.22         120 
 26.24         107 
 26.26         97 
 26.28         118 
 26.3          132 
 26.32         119 
 26.34         103 
 26.36         119 
 26.38         100 
 26.4          131 
 26.42         116 
 26.44         103 
 26.46         142 
 26.48         104 
 26.5          99 
 26.52         103 
 26.54         115 
 26.56         117 
 26.58         118 
 26.6          109 
 26.62         105 
 26.64         119 
 26.66         108 
 26.68         122 
 26.7          123 
 26.72         120 
 26.74         130 
 26.76         121 
 26.78         96 
 26.8          98 
 26.82         117 
 26.84         106 
 26.86         113 
 26.88         105 
 26.9          129 
 26.92         109 
 26.94         108 
 26.96         125 
 26.98         131 
 27            113 
 27.02         101 
 27.04         132 
 27.06         126 
 27.08         114 
 27.1          102 
 27.12         115 
 27.14         121 
 27.16         137 
 27.18         111 
 27.2          113 
 27.22         118 
 27.24         119 
 27.26         124 
 27.28         149 
 27.3          132 
 27.32         143 
 27.34         128 
 27.36         157 
 27.38         173 
 27.4          225 
 27.42         200 
 27.44         217 
 27.46         267 
 27.48         301 
 27.5          313 
 27.52         312 
 27.54         315 
 27.56         272 
 27.58         247 
 27.6          224 
 27.62         188 
 27.64         165 
 27.66         145 
 27.68         142 
 27.7          123 
 27.72         124 
 27.74         108 
 27.76         118 
 27.78         111 
 27.8          120 
 27.82         99 
 27.84         96 
 27.86         111 
 27.88         93 
 27.9          111 
 27.92         106 
 27.94         116 
 27.96         106 
 27.98         101 
 28            97 
 28.02         122 
 28.04         100 
 28.06         107 
 28.08         109 
 28.1          108 
 28.12         88 
 28.14         100 
 28.16         116 
 28.18         115 
 28.2          106 
 28.22         112 
 28.24         95 
 28.26         107 
 28.28         96 
 28.3          109 
 28.32         98 
 28.34         93 
 28.36         109 
 28.38         120 
 28.4          99 
 28.42         107 
 28.44         90 
 28.46         117 
 28.48         80 
 28.5          108 
 28.52         110 
 28.54         108 
 28.56         100 
 28.58         107 
 28.6          101 
 28.62         87 
 28.64         100 
 28.66         110 
 28.68         98 
 28.7          85 
 28.72         101 
 28.74         84 
 28.76         97 
 28.78         99 
 28.8          106 
 28.82         94 
 28.84         99 
 28.86         125 
 28.88         95 
 28.9          106 
 28.92         80 
 28.94         87 
 28.96         99 
 28.98         65 
 29            108 
 29.02         94 
 29.04         96 
 29.06         107 
 29.08         88 
 29.1          91 
 29.12         90 
 29.14         103 
 29.16         91 
 29.18         104 
 29.2          97 
 29.22         91 
 29.24         117 
 29.26         78 
 29.28         103 
 29.3          88 
 29.32         91 
 29.34         73 
 29.36         83 
 29.38         89 
 29.4          85 
 29.42         88 
 29.44         93 
 29.46         81 
 29.48         93 
 29.5          75 
 29.52         84 
 29.54         94 
 29.56         101 
 29.58         86 
 29.6          94 
 29.62         95 
 29.64         73 
 29.66         82 
 29.68         97 
 29.7          93 
 29.72         83 
 29.74         85 
 29.76         94 
 29.78         100 
 29.8          85 
 29.82         99 
 29.84         82 
 29.86         102 
 29.88         105 
 29.9          90 
 29.92         96 
 29.94         81 
 29.96         97 
 29.98         102 
 30            90 
 30.02         99 
 30.04         98 
 30.06         104 
 30.08         113 
 30.1          96 
 30.12         109 
 30.14         114 
 30.16         110 
 30.18         123 
 30.2          145 
 30.22         183 
 30.24         180 
 30.26         183 
 30.28         229 
 30.3          179 
 30.32         201 
 30.34         182 
 30.36         172 
 30.38         162 
 30.4          119 
 30.42         122 
 30.44         106 
 30.46         105 
 30.48         94 
 30.5          93 
 30.52         72 
 30.54         84 
 30.56         88 
 30.58         76 
 30.6          87 
 30.62         59 
 30.64         80 
 30.66         86 
 30.68         85 
 30.7          94 
 30.72         83 
 30.74         70 
 30.76         82 
 30.78         96 
 30.8          67 
 30.82         79 
 30.84         78 
 30.86         71 
 30.88         77 
 30.9          84 
 30.92         82 
 30.94         77 
 30.96         83 
 30.98         83 
 31            76 
 31.02         59 
 31.04         78 
 31.06         85 
 31.08         73 
 31.1          73 
 31.12         66 
 31.14         80 
 31.16         73 
 31.18         72 
 31.2          81 
 31.22         73 
 31.24         72 
 31.26         102 
 31.28         80 
 31.3          82 
 31.32         64 
 31.34         64 
 31.36         83 
 31.38         76 
 31.4          66 
 31.42         62 
 31.44         72 
 31.46         95 
 31.48         77 
 31.5          56 
 31.52         62 
 31.54         80 
 31.56         69 
 31.58         63 
 31.6          78 
 31.62         78 
 31.64         73 
 31.66         77 
 31.68         61 
 31.7          74 
 31.72         74 
 31.74         61 
 31.76         72 
 31.78         77 
 31.8          73 
 31.82         54 
 31.84         77 
 31.86         81 
 31.88         69 
 31.9          66 
 31.92         62 
 31.94         63 
 31.96         68 
 31.98         69 
 32            76 
 32.02         66 
 32.04         55 
 32.06         65 
 32.08         67 
 32.1          69 
 32.12         68 
 32.14         54 
 32.16         63 
 32.18         54 
 32.2          74 
 32.22         57 
 32.24         54 
 32.26         65 
 32.28         57 
 32.3          80 
 32.32         76 
 32.34         70 
 32.36         61 
 32.38         64 
 32.4          70 
 32.42         54 
 32.44         66 
 32.46         65 
 32.48         64 
 32.5          73 
 32.52         61 
 32.54         63 
 32.56         63 
 32.58         59 
 32.6          66 
 32.62         59 
 32.64         64 
 32.66         59 
 32.68         62 
 32.7          76 
 32.72         64 
 32.74         62 
 32.76         67 
 32.78         74 
 32.8          62 
 32.82         65 
 32.84         59 
 32.86         57 
 32.88         46 
 32.9          66 
 32.92         51 
 32.94         78 
 32.96         63 
 32.98         60 
 33            75 
 33.02         67 
 33.04         77 
 33.06         55 
 33.08         62 
 33.1          61 
 33.12         72 
 33.14         60 
 33.16         58 
 33.18         67 
 33.2          55 
 33.22         62 
 33.24         53 
 33.26         50 
 33.28         74 
 33.3          69 
 33.32         65 
 33.34         69 
 33.36         65 
 33.38         59 
 33.4          56 
 33.42         60 
 33.44         57 
 33.46         56 
 33.48         65 
 33.5          52 
 33.52         48 
 33.54         59 
 33.56         58 
 33.58         57 
 33.6          65 
 33.62         54 
 33.64         70 
 33.66         50 
 33.68         61 
 33.7          59 
 33.72         64 
 33.74         44 
 33.76         57 
 33.78         55 
 33.8          64 
 33.82         61 
 33.84         63 
 33.86         51 
 33.88         62 
 33.9          60 
 33.92         59 
 33.94         64 
 33.96         54 
 33.98         49 
 34            59 
 34.02         56 
 34.04         67 
 34.06         48 
 34.08         50 
 34.1          51 
 34.12         52 
 34.14         60 
 34.16         47 
 34.18         55 
 34.2          41 
 34.22         47 
 34.24         62 
 34.26         41 
 34.28         51 
 34.3          53 
 34.32         58 
 34.34         66 
 34.36         45 
 34.38         55 
 34.4          43 
 34.42         50 
 34.44         49 
 34.46         53 
 34.48         60 
 34.5          50 
 34.52         60 
 34.54         64 
 34.56         62 
 34.58         64 
 34.6          66 
 34.62         52 
 34.64         51 
 34.66         56 
 34.68         65 
 34.7          53 
 34.72         63 
 34.74         52 
 34.76         61 
 34.78         45 
 34.8          64 
 34.82         55 
 34.84         62 
 34.86         59 
 34.88         56 
 34.9          64 
 34.92         69 
 34.94         61 
 34.96         64 
 34.98         76 
 35            71 
 35.02         82 
 35.04         75 
 35.06         76 
 35.08         69 
 35.1          87 
 35.12         77 
 35.14         81 
 35.16         87 
 35.18         101 
 35.2          111 
 35.22         119 
 35.24         124 
 35.26         113 
 35.28         129 
 35.3          159 
 35.32         170 
 35.34         188 
 35.36         197 
 35.38         240 
 35.4          253 
 35.42         363 
 35.44         439 
 35.46         550 
 35.48         667 
 35.5          884 
 35.52         1164 
 35.54         1501 
 35.56         1973 
 35.58         2563 
 35.6          3398 
 35.62         4164 
 35.64         4747 
 35.66         5269 
 35.68         5276 
 35.7          4908 
 35.72         4259 
 35.74         3479 
 35.76         2898 
 35.78         2169 
 35.8          1692 
 35.82         1104 
 35.84         759 
 35.86         472 
 35.88         347 
 35.9          294 
 35.92         264 
 35.94         217 
 35.96         179 
 35.98         145 
 36            165 
 36.02         165 
 36.04         157 
 36.06         154 
 36.08         142 
 36.1          167 
 36.12         171 
 36.14         192 
 36.16         181 
 36.18         171 
 36.2          167 
 36.22         138 
 36.24         132 
 36.26         113 
 36.28         105 
 36.3          87 
 36.32         87 
 36.34         85 
 36.36         75 
 36.38         69 
 36.4          77 
 36.42         68 
 36.44         68 
 36.46         52 
 36.48         70 
 36.5          42 
 36.52         61 
 36.54         56 
 36.56         60 
 36.58         69 
 36.6          55 
 36.62         47 
 36.64         68 
 36.66         51 
 36.68         44 
 36.7          54 
 36.72         41 
 36.74         44 
 36.76         48 
 36.78         59 
 36.8          53 
 36.82         69 
 36.84         52 
 36.86         51 
 36.88         51 
 36.9          64 
 36.92         61 
 36.94         53 
 36.96         54 
 36.98         44 
 37            54 
 37.02         46 
 37.04         61 
 37.06         52 
 37.08         70 
 37.1          52 
 37.12         74 
 37.14         77 
 37.16         94 
 37.18         116 
 37.2          124 
 37.22         160 
 37.24         187 
 37.26         206 
 37.28         280 
 37.3          272 
 37.32         272 
 37.34         258 
 37.36         248 
 37.38         227 
 37.4          173 
 37.42         148 
 37.44         111 
 37.46         108 
 37.48         79 
 37.5          73 
 37.52         72 
 37.54         51 
 37.56         46 
 37.58         49 
 37.6          57 
 37.62         48 
 37.64         48 
 37.66         42 
 37.68         49 
 37.7          50 
 37.72         44 
 37.74         57 
 37.76         34 
 37.78         49 
 37.8          46 
 37.82         46 
 37.84         44 
 37.86         47 
 37.88         44 
 37.9          48 
 37.92         51 
 37.94         53 
 37.96         41 
 37.98         42 
 38            50 
 38.02         47 
 38.04         47 
 38.06         51 
 38.08         50 
 38.1          54 
 38.12         39 
 38.14         53 
 38.16         42 
 38.18         48 
 38.2          41 
 38.22         38 
 38.24         45 
 38.26         39 
 38.28         52 
 38.3          49 
 38.32         39 
 38.34         46 
 38.36         58 
 38.38         41 
 38.4          45 
 38.42         45 
 38.44         49 
 38.46         40 
 38.48         55 
 38.5          42 
 38.52         42 
 38.54         46 
 38.56         47 
 38.58         48 
 38.6          45 
 38.62         41 
 38.64         50 
 38.66         55 
 38.68         47 
 38.7          50 
 38.72         32 
 38.74         55 
 38.76         40 
 38.78         47 
 38.8          37 
 38.82         42 
 38.84         34 
 38.86         46 
 38.88         33 
 38.9          45 
 38.92         35 
 38.94         45 
 38.96         52 
 38.98         40 
 39            41 
 39.02         51 
 39.04         39 
 39.06         54 
 39.08         47 
 39.1          45 
 39.12         43 
 39.14         41 
 39.16         43 
 39.18         54 
 39.2          54 
 39.22         66 
 39.24         52 
 39.26         52 
 39.28         57 
 39.3          58 
 39.32         39 
 39.34         51 
 39.36         55 
 39.38         41 
 39.4          50 
 39.42         49 
 39.44         48 
 39.46         43 
 39.48         45 
 39.5          39 
 39.52         38 
 39.54         39 
 39.56         31 
 39.58         46 
 39.6          41 
 39.62         33 
 39.64         56 
 39.66         45 
 39.68         53 
 39.7          38 
 39.72         38 
 39.74         41 
 39.76         47 
 39.78         42 
 39.8          40 
 39.82         55 
 39.84         52 
 39.86         45 
 39.88         41 
 39.9          43 
 39.92         49 
 39.94         46 
 39.96         51 
 39.98         51 
 40            44 
 40.02         29 
 40.04         50 
 40.06         48 
 40.08         46 
 40.1          40 
 40.12         39 
 40.14         44 
 40.16         49 
 40.18         54 
 40.2          51 
 40.22         53 
 40.24         54 
 40.26         43 
 40.28         49 
 40.3          30 
 40.32         50 
 40.34         45 
 40.36         47 
 40.38         46 
 40.4          42 
 40.42         40 
 40.44         39 
 40.46         36 
 40.48         44 
 40.5          40 
 40.52         49 
 40.54         38 
 40.56         47 
 40.58         40 
 40.6          38 
 40.62         34 
 40.64         46 
 40.66         37 
 40.68         49 
 40.7          31 
 40.72         43 
 40.74         40 
 40.76         42 
 40.78         40 
 40.8          55 
 40.82         40 
 40.84         53 
 40.86         24 
 40.88         55 
 40.9          50 
 40.92         49 
 40.94         44 
 40.96         37 
 40.98         41 
 41            58 
 41.02         45 
 41.04         56 
 41.06         49 
 41.08         47 
 41.1          42 
 41.12         56 
 41.14         38 
 41.16         58 
 41.18         53 
 41.2          45 
 41.22         49 
 41.24         66 
 41.26         88 
 41.28         81 
 41.3          79 
 41.32         86 
 41.34         91 
 41.36         104 
 41.38         87 
 41.4          80 
 41.42         69 
 41.44         65 
 41.46         62 
 41.48         62 
 41.5          37 
 41.52         59 
 41.54         53 
 41.56         43 
 41.58         48 
 41.6          48 
 41.62         48 
 41.64         44 
 41.66         56 
 41.68         52 
 41.7          42 
 41.72         40 
 41.74         43 
 41.76         53 
 41.78         39 
 41.8          56 
 41.82         39 
 41.84         45 
 41.86         52 
 41.88         46 
 41.9          47 
 41.92         55 
 41.94         48 
 41.96         44 
 41.98         41 
 42            44 
 42.02         40 
 42.04         50 
 42.06         56 
 42.08         49 
 42.1          49 
 42.12         45 
 42.14         50 
 42.16         51 
 42.18         49 
 42.2          37 
 42.22         59 
 42.24         53 
 42.26         48 
 42.28         41 
 42.3          55 
 42.32         38 
 42.34         44 
 42.36         43 
 42.38         54 
 42.4          63 
 42.42         54 
 42.44         55 
 42.46         59 
 42.48         48 
 42.5          69 
 42.52         65 
 42.54         61 
 42.56         58 
 42.58         53 
 42.6          60 
 42.62         57 
 42.64         71 
 42.66         75 
 42.68         58 
 42.7          68 
 42.72         70 
 42.74         92 
 42.76         89 
 42.78         84 
 42.8          76 
 42.82         108 
 42.84         112 
 42.86         109 
 42.88         126 
 42.9          112 
 42.92         154 
 42.94         170 
 42.96         167 
 42.98         183 
 43            222 
 43.02         246 
 43.04         274 
 43.06         339 
 43.08         401 
 43.1          500 
 43.12         602 
 43.14         742 
 43.16         996 
 43.18         1360 
 43.2          1742 
 43.22         2517 
 43.24         3112 
 43.26         4339 
 43.28         5675 
 43.3          6869 
 43.32         7512 
 43.34         7825 
 43.36         7424 
 43.38         6662 
 43.4          5941 
 43.42         4978 
 43.44         4368 
 43.46         3683 
 43.48         2881 
 43.5          2052 
 43.52         1410 
 43.54         959 
 43.56         570 
 43.58         504 
 43.6          402 
 43.62         335 
 43.64         260 
 43.66         260 
 43.68         211 
 43.7          222 
 43.72         161 
 43.74         158 
 43.76         170 
 43.78         133 
 43.8          144 
 43.82         122 
 43.84         125 
 43.86         132 
 43.88         121 
 43.9          96 
 43.92         105 
 43.94         75 
 43.96         91 
 43.98         79 
 44            87 
 44.02         63 
 44.04         74 
 44.06         78 
 44.08         85 
 44.1          72 
 44.12         74 
 44.14         88 
 44.16         73 
 44.18         64 
 44.2          68 
 44.22         64 
 44.24         53 
 44.26         67 
 44.28         57 
 44.3          57 
 44.32         50 
 44.34         44 
 44.36         48 
 44.38         53 
 44.4          48 
 44.42         57 
 44.44         45 
 44.46         46 
 44.48         50 
 44.5          52 
 44.52         52 
 44.54         43 
 44.56         42 
 44.58         55 
 44.6          48 
 44.62         51 
 44.64         37 
 44.66         45 
 44.68         50 
 44.7          51 
 44.72         46 
 44.74         43 
 44.76         42 
 44.78         47 
 44.8          52 
 44.82         47 
 44.84         51 
 44.86         39 
 44.88         35 
 44.9          42 
 44.92         39 
 44.94         40 
 44.96         35 
 44.98         54 
 45            50 
 45.02         40 
 45.04         47 
 45.06         51 
 45.08         51 
 45.1          60 
 45.12         42 
 45.14         31 
 45.16         47 
 45.18         45 
 45.2          41 
 45.22         42 
 45.24         43 
 45.26         45 
 45.28         31 
 45.3          37 
 45.32         37 
 45.34         39 
 45.36         46 
 45.38         39 
 45.4          53 
 45.42         36 
 45.44         37 
 45.46         37 
 45.48         46 
 45.5          35 
 45.52         50 
 45.54         43 
 45.56         41 
 45.58         40 
 45.6          46 
 45.62         43 
 45.64         40 
 45.66         54 
 45.68         49 
 45.7          42 
 45.72         33 
 45.74         49 
 45.76         47 
 45.78         42 
 45.8          42 
 45.82         49 
 45.84         41 
 45.86         49 
 45.88         36 
 45.9          37 
 45.92         28 
 45.94         46 
 45.96         37 
 45.98         44 
 46            38 
 46.02         47 
 46.04         60 
 46.06         44 
 46.08         42 
 46.1          34 
 46.12         28 
 46.14         37 
 46.16         31 
 46.18         41 
 46.2          45 
 46.22         47 
 46.24         38 
 46.26         39 
 46.28         35 
 46.3          42 
 46.32         39 
 46.34         39 
 46.36         34 
 46.38         35 
 46.4          34 
 46.42         53 
 46.44         37 
 46.46         49 
 46.48         36 
 46.5          35 
 46.52         31 
 46.54         36 
 46.56         40 
 46.58         42 
 46.6          35 
 46.62         41 
 46.64         53 
 46.66         57 
 46.68         37 
 46.7          42 
 46.72         41 
 46.74         35 
 46.76         41 
 46.78         46 
 46.8          32 
 46.82         41 
 46.84         46 
 46.86         44 
 46.88         52 
 46.9          47 
 46.92         42 
 46.94         37 
 46.96         45 
 46.98         42 
 47            44 
 47.02         53 
 47.04         46 
 47.06         54 
 47.08         68 
 47.1          63 
 47.12         52 
 47.14         68 
 47.16         62 
 47.18         79 
 47.2          85 
 47.22         82 
 47.24         96 
 47.26         109 
 47.28         143 
 47.3          175 
 47.32         240 
 47.34         295 
 47.36         412 
 47.38         511 
 47.4          619 
 47.42         724 
 47.44         740 
 47.46         727 
 47.48         653 
 47.5          564 
 47.52         505 
 47.54         465 
 47.56         430 
 47.58         371 
 47.6          326 
 47.62         234 
 47.64         174 
 47.66         135 
 47.68         87 
 47.7          102 
 47.72         64 
 47.74         66 
 47.76         52 
 47.78         64 
 47.8          62 
 47.82         49 
 47.84         58 
 47.86         52 
 47.88         33 
 47.9          43 
 47.92         47 
 47.94         48 
 47.96         38 
 47.98         33 
 48            47 
 48.02         42 
 48.04         44 
 48.06         37 
 48.08         35 
 48.1          55 
 48.12         46 
 48.14         45 
 48.16         43 
 48.18         37 
 48.2          48 
 48.22         37 
 48.24         39 
 48.26         25 
 48.28         56 
 48.3          44 
 48.32         38 
 48.34         37 
 48.36         47 
 48.38         36 
 48.4          50 
 48.42         42 
 48.44         49 
 48.46         31 
 48.48         40 
 48.5          40 
 48.52         51 
 48.54         44 
 48.56         38 
 48.58         40 
 48.6          42 
 48.62         39 
 48.64         33 
 48.66         24 
 48.68         39 
 48.7          40 
 48.72         38 
 48.74         28 
 48.76         31 
 48.78         45 
 48.8          28 
 48.82         44 
 48.84         34 
 48.86         46 
 48.88         53 
 48.9          43 
 48.92         46 
 48.94         38 
 48.96         41 
 48.98         46 
 49            42 
 49.02         50 
 49.04         37 
 49.06         54 
 49.08         38 
 49.1          48 
 49.12         34 
 49.14         35 
 49.16         34 
 49.18         39 
 49.2          40 
 49.22         48 
 49.24         41 
 49.26         48 
 49.28         35 
 49.3          34 
 49.32         43 
 49.34         26 
 49.36         33 
 49.38         36 
 49.4          31 
 49.42         37 
 49.44         41 
 49.46         40 
 49.48         36 
 49.5          51 
 49.52         36 
 49.54         48 
 49.56         41 
 49.58         45 
 49.6          37 
 49.62         35 
 49.64         32 
 49.66         39 
 49.68         29 
 49.7          50 
 49.72         25 
 49.74         30 
 49.76         38 
 49.78         41 
 49.8          40 
 49.82         48 
 49.84         32 
 49.86         35 
 49.88         45 
 49.9          41 
 49.92         45 
 49.94         41 
 49.96         43 
 49.98         39 
 50            39 
 50.02         47 
 50.04         33 
 50.06         38 
 50.08         42 
 50.1          31 
 50.12         48 
 50.14         42 
 50.16         54 
 50.18         36 
 50.2          48 
 50.22         39 
 50.24         45 
 50.26         40 
 50.28         44 
 50.3          42 
 50.32         42 
 50.34         39 
 50.36         45 
 50.38         43 
 50.4          49 
 50.42         32 
 50.44         39 
 50.46         49 
 50.48         49 
 50.5          41 
 50.52         53 
 50.54         48 
 50.56         56 
 50.58         39 
 50.6          55 
 50.62         35 
 50.64         35 
 50.66         39 
 50.68         43 
 50.7          31 
 50.72         38 
 50.74         40 
 50.76         42 
 50.78         33 
 50.8          50 
 50.82         44 
 50.84         39 
 50.86         37 
 50.88         47 
 50.9          30 
 50.92         32 
 50.94         41 
 50.96         39 
 50.98         43 
 51            29 
 51.02         43 
 51.04         35 
 51.06         37 
 51.08         41 
 51.1          48 
 51.12         39 
 51.14         42 
 51.16         33 
 51.18         32 
 51.2          42 
 51.22         32 
 51.24         37 
 51.26         46 
 51.28         43 
 51.3          50 
 51.32         41 
 51.34         35 
 51.36         36 
 51.38         31 
 51.4          30 
 51.42         36 
 51.44         43 
 51.46         39 
 51.48         47 
 51.5          32 
 51.52         32 
 51.54         48 
 51.56         37 
 51.58         46 
 51.6          46 
 51.62         32 
 51.64         27 
 51.66         37 
 51.68         42 
 51.7          37 
 51.72         46 
 51.74         38 
 51.76         51 
 51.78         44 
 51.8          36 
 51.82         40 
 51.84         37 
 51.86         35 
 51.88         29 
 51.9          43 
 51.92         42 
 51.94         33 
 51.96         42 
 51.98         36 
 52            49 
 52.02         37 
 52.04         43 
 52.06         40 
 52.08         28 
 52.1          35 
 52.12         30 
 52.14         32 
 52.16         30 
 52.18         20 
 52.2          41 
 52.22         41 
 52.24         28 
 52.26         31 
 52.28         37 
 52.3          33 
 52.32         43 
 52.34         38 
 52.36         52 
 52.38         41 
 52.4          38 
 52.42         34 
 52.44         40 
 52.46         35 
 52.48         47 
 52.5          38 
 52.52         30 
 52.54         46 
 52.56         44 
 52.58         41 
 52.6          36 
 52.62         38 
 52.64         35 
 52.66         27 
 52.68         35 
 52.7          34 
 52.72         33 
 52.74         37 
 52.76         48 
 52.78         23 
 52.8          45 
 52.82         31 
 52.84         50 
 52.86         44 
 52.88         42 
 52.9          46 
 52.92         37 
 52.94         39 
 52.96         41 
 52.98         42 
 53            40 
 53.02         42 
 53.04         49 
 53.06         51 
 53.08         39 
 53.1          39 
 53.12         42 
 53.14         38 
 53.16         38 
 53.18         47 
 53.2          36 
 53.22         50 
 53.24         32 
 53.26         53 
 53.28         36 
 53.3          42 
 53.32         47 
 53.34         37 
 53.36         41 
 53.38         49 
 53.4          44 
 53.42         43 
 53.44         37 
 53.46         41 
 53.48         37 
 53.5          36 
 53.52         47 
 53.54         31 
 53.56         51 
 53.58         35 
 53.6          40 
 53.62         47 
 53.64         38 
 53.66         59 
 53.68         46 
 53.7          37 
 53.72         44 
 53.74         51 
 53.76         43 
 53.78         63 
 53.8          41 
 53.82         43 
 53.84         53 
 53.86         54 
 53.88         47 
 53.9          44 
 53.92         39 
 53.94         43 
 53.96         45 
 53.98         45 
 54            34 
 54.02         55 
 54.04         48 
 54.06         48 
 54.08         40 
 54.1          40 
 54.12         51 
 54.14         52 
 54.16         42 
 54.18         56 
 54.2          34 
 54.22         55 
 54.24         60 
 54.26         75 
 54.28         74 
 54.3          96 
 54.32         112 
 54.34         105 
 54.36         128 
 54.38         140 
 54.4          136 
 54.42         136 
 54.44         146 
 54.46         120 
 54.48         108 
 54.5          122 
 54.52         100 
 54.54         102 
 54.56         93 
 54.58         90 
 54.6          78 
 54.62         77 
 54.64         58 
 54.66         60 
 54.68         54 
 54.7          60 
 54.72         41 
 54.74         46 
 54.76         49 
 54.78         45 
 54.8          31 
 54.82         44 
 54.84         50 
 54.86         39 
 54.88         32 
 54.9          39 
 54.92         46 
 54.94         38 
 54.96         32 
 54.98         33 
 55            40 
 55.02         42 
 55.04         48 
 55.06         50 
 55.08         37 
 55.1          31 
 55.12         43 
 55.14         48 
 55.16         51 
 55.18         43 
 55.2          45 
 55.22         38 
 55.24         39 
 55.26         49 
 55.28         33 
 55.3          53 
 55.32         40 
 55.34         45 
 55.36         43 
 55.38         37 
 55.4          48 
 55.42         41 
 55.44         42 
 55.46         33 
 55.48         45 
 55.5          42 
 55.52         42 
 55.54         31 
 55.56         44 
 55.58         40 
 55.6          46 
 55.62         44 
 55.64         35 
 55.66         41 
 55.68         45 
 55.7          48 
 55.72         52 
 55.74         48 
 55.76         50 
 55.78         47 
 55.8          46 
 55.82         27 
 55.84         42 
 55.86         40 
 55.88         49 
 55.9          40 
 55.92         36 
 55.94         36 
 55.96         41 
 55.98         43 
 56            48 
 56.02         46 
 56.04         60 
 56.06         53 
 56.08         39 
 56.1          49 
 56.12         43 
 56.14         50 
 56.16         42 
 56.18         39 
 56.2          53 
 56.22         54 
 56.24         43 
 56.26         33 
 56.28         45 
 56.3          59 
 56.32         51 
 56.34         45 
 56.36         61 
 56.38         51 
 56.4          38 
 56.42         52 
 56.44         43 
 56.46         55 
 56.48         57 
 56.5          57 
 56.52         54 
 56.54         58 
 56.56         62 
 56.58         56 
 56.6          68 
 56.62         79 
 56.64         57 
 56.66         73 
 56.68         74 
 56.7          89 
 56.72         83 
 56.74         85 
 56.76         97 
 56.78         79 
 56.8          83 
 56.82         93 
 56.84         82 
 56.86         93 
 56.88         91 
 56.9          102 
 56.92         97 
 56.94         99 
 56.96         111 
 56.98         125 
 57            123 
 57.02         122 
 57.04         146 
 57.06         136 
 57.08         215 
 57.1          254 
 57.12         290 
 57.14         416 
 57.16         512 
 57.18         744 
 57.2          986 
 57.22         1303 
 57.24         1575 
 57.26         2035 
 57.28         2199 
 57.3          2215 
 57.32         2076 
 57.34         1762 
 57.36         1485 
 57.38         1294 
 57.4          1211 
 57.42         1219 
 57.44         1157 
 57.46         1171 
 57.48         875 
 57.5          665 
 57.52         443 
 57.54         323 
 57.56         243 
 57.58         204 
 57.6          172 
 57.62         151 
 57.64         113 
 57.66         88 
 57.68         89 
 57.7          71 
 57.72         82 
 57.74         76 
 57.76         78 
 57.78         67 
 57.8          71 
 57.82         57 
 57.84         57 
 57.86         67 
 57.88         66 
 57.9          61 
 57.92         62 
 57.94         56 
 57.96         62 
 57.98         56 
 58            70 
 58.02         69 
 58.04         52 
 58.06         52 
 58.08         54 
 58.1          57 
 58.12         46 
 58.14         51 
 58.16         49 
 58.18         38 
 58.2          43 
 58.22         52 
 58.24         39 
 58.26         71 
 58.28         54 
 58.3          52 
 58.32         45 
 58.34         33 
 58.36         50 
 58.38         59 
 58.4          56 
 58.42         47 
 58.44         41 
 58.46         51 
 58.48         34 
 58.5          46 
 58.52         52 
 58.54         52 
 58.56         58 
 58.58         60 
 58.6          44 
 58.62         52 
 58.64         44 
 58.66         54 
 58.68         46 
 58.7          51 
 58.72         49 
 58.74         57 
 58.76         47 
 58.78         43 
 58.8          50 
 58.82         47 
 58.84         45 
 58.86         55 
 58.88         47 
 58.9          47 
 58.92         42 
 58.94         47 
 58.96         45 
 58.98         56 
 59            51 
 59.02         36 
 59.04         42 
 59.06         61 
 59.08         38 
 59.1          44 
 59.12         44 
 59.14         41 
 59.16         48 
 59.18         45 
 59.2          53 
 59.22         38 
 59.24         48 
 59.26         41 
 59.28         46 
 59.3          51 
 59.32         32 
 59.34         43 
 59.36         58 
 59.38         47 
 59.4          45 
 59.42         36 
 59.44         52 
 59.46         45 
 59.48         61 
 59.5          49 
 59.52         57 
 59.54         39 
 59.56         46 
 59.58         45 
 59.6          51 
 59.62         53 
 59.64         37 
 59.66         56 
 59.68         54 
 59.7          41 
 59.72         48 
 59.74         37 
 59.76         49 
 59.78         50 
 59.8          64 
 59.82         56 
 59.84         49 
 59.86         32 
 59.88         49 
 59.9          54 
 59.92         52 
 59.94         53 
 59.96         43 
 59.98         50 
 60            44 
 60.02         46 
 60.04         52 
 60.06         48 
 60.08         38 
 60.1          51 
 60.12         53 
 60.14         58 
 60.16         46 
 60.18         49 
 60.2          40 
 60.22         50 
 60.24         44 
 60.26         57 
 60.28         39 
 60.3          41 
 60.32         57 
 60.34         49 
 60.36         51 
 60.38         35 
 60.4          43 
 60.42         43 
 60.44         42 
 60.46         48 
 60.48         45 
 60.5          58 
 60.52         44 
 60.54         39 
 60.56         50 
 60.58         51 
 60.6          47 
 60.62         43 
 60.64         52 
 60.66         44 
 60.68         43 
 60.7          46 
 60.72         51 
 60.74         50 
 60.76         53 
 60.78         59 
 60.8          34 
 60.82         49 
 60.84         45 
 60.86         50 
 60.88         55 
 60.9          47 
 60.92         44 
 60.94         40 
 60.96         42 
 60.98         48 
 61            39 
 61.02         57 
 61.04         57 
 61.06         51 
 61.08         53 
 61.1          57 
 61.12         55 
 61.14         50 
 61.16         45 
 61.18         55 
 61.2          42 
 61.22         52 
 61.24         35 
 61.26         54 
 61.28         44 
 61.3          49 
 61.32         52 
 61.34         56 
 61.36         54 
 61.38         56 
 61.4          46 
 61.42         43 
 61.44         54 
 61.46         52 
 61.48         52 
 61.5          49 
 61.52         51 
 61.54         63 
 61.56         57 
 61.58         43 
 61.6          51 
 61.62         52 
 61.64         54 
 61.66         40 
 61.68         63 
 61.7          61 
 61.72         45 
 61.74         59 
 61.76         52 
 61.78         66 
 61.8          75 
 61.82         61 
 61.84         58 
 61.86         62 
 61.88         52 
 61.9          50 
 61.92         57 
 61.94         56 
 61.96         60 
 61.98         56 
 62            54 
 62.02         58 
 62.04         53 
 62.06         65 
 62.08         50 
 62.1          55 
 62.12         50 
 62.14         60 
 62.16         47 
 62.18         53 
 62.2          80 
 62.22         65 
 62.24         51 
 62.26         70 
 62.28         73 
 62.3          73 
 62.32         75 
 62.34         74 
 62.36         76 
 62.38         66 
 62.4          73 
 62.42         79 
 62.44         79 
 62.46         74 
 62.48         94 
 62.5          101 
 62.52         119 
 62.54         147 
 62.56         154 
 62.58         167 
 62.6          177 
 62.62         195 
 62.64         213 
 62.66         219 
 62.68         250 
 62.7          284 
 62.72         371 
 62.74         487 
 62.76         652 
 62.78         857 
 62.8          1236 
 62.82         1747 
 62.84         2441 
 62.86         2988 
 62.88         3590 
 62.9          3867 
 62.92         3842 
 62.94         3340 
 62.96         2765 
 62.98         2222 
 63            1940 
 63.02         1925 
 63.04         2076 
 63.06         2122 
 63.08         2078 
 63.1          1816 
 63.12         1494 
 63.14         1081 
 63.16         728 
 63.18         518 
 63.2          339 
 63.22         286 
 63.24         228 
 63.26         208 
 63.28         181 
 63.3          135 
 63.32         169 
 63.34         143 
 63.36         111 
 63.38         122 
 63.4          117 
 63.42         119 
 63.44         95 
 63.46         96 
 63.48         100 
 63.5          96 
 63.52         93 
 63.54         83 
 63.56         91 
 63.58         74 
 63.6          75 
 63.62         76 
 63.64         99 
 63.66         60 
 63.68         62 
 63.7          62 
 63.72         71 
 63.74         63 
 63.76         76 
 63.78         72 
 63.8          66 
 63.82         75 
 63.84         75 
 63.86         66 
 63.88         67 
 63.9          63 
 63.92         56 
 63.94         53 
 63.96         53 
 63.98         64 
 64            81 
 64.02         61 
 64.04         55 
 64.06         56 
 64.08         58 
 64.1          73 
 64.12         56 
 64.14         72 
 64.16         80 
 64.18         71 
 64.2          73 
 64.22         58 
 64.24         50 
 64.26         55 
 64.28         50 
 64.3          54 
 64.32         64 
 64.34         59 
 64.36         53 
 64.38         70 
 64.4          59 
 64.42         74 
 64.44         54 
 64.46         54 
 64.48         47 
 64.5          68 
 64.52         49 
 64.54         49 
 64.56         54 
 64.58         46 
 64.6          52 
 64.62         51 
 64.64         46 
 64.66         41 
 64.68         37 
 64.7          60 
 64.72         52 
 64.74         55 
 64.76         44 
 64.78         51 
 64.8          63 
 64.82         55 
 64.84         58 
 64.86         57 
 64.88         48 
 64.9          42 
 64.92         53 
 64.94         51 
 64.96         44 
 64.98         61 
 65            58 
 65.02         59 
 65.04         60 
 65.06         43 
 65.08         54 
 65.1          44 
 65.12         51 
 65.14         42 
 65.16         43 
 65.18         51 
 65.2          46 
 65.22         44 
 65.24         46 
 65.26         49 
 65.28         39 
 65.3          43 
 65.32         54 
 65.34         53 
 65.36         62 
 65.38         56 
 65.4          53 
 65.42         60 
 65.44         47 
 65.46         58 
 65.48         46 
 65.5          57 
 65.52         58 
 65.54         36 
 65.56         49 
 65.58         53 
 65.6          76 
 65.62         41 
 65.64         52 
 65.66         64 
 65.68         69 
 65.7          58 
 65.72         67 
 65.74         57 
 65.76         54 
 65.78         88 
 65.8          86 
 65.82         79 
 65.84         107 
 65.86         100 
 65.88         96 
 65.9          112 
 65.92         100 
 65.94         149 
 65.96         158 
 65.98         211 
 66            267 
 66.02         361 
 66.04         469 
 66.06         655 
 66.08         885 
 66.1          1101 
 66.12         1248 
 66.14         1377 
 66.16         1318 
 66.18         1149 
 66.2          929 
 66.22         718 
 66.24         638 
 66.26         610 
 66.28         703 
 66.3          706 
 66.32         772 
 66.34         642 
 66.36         580 
 66.38         419 
 66.4          286 
 66.42         212 
 66.44         176 
 66.46         121 
 66.48         110 
 66.5          90 
 66.52         88 
 66.54         78 
 66.56         86 
 66.58         72 
 66.6          58 
 66.62         62 
 66.64         41 
 66.66         58 
 66.68         60 
 66.7          57 
 66.72         55 
 66.74         54 
 66.76         43 
 66.78         61 
 66.8          49 
 66.82         48 
 66.84         46 
 66.86         40 
 66.88         41 
 66.9          50 
 66.92         60 
 66.94         51 
 66.96         61 
 66.98         56 
 67            35 
 67.02         46 
 67.04         48 
 67.06         51 
 67.08         49 
 67.1          50 
 67.12         41 
 67.14         49 
 67.16         48 
 67.18         50 
 67.2          40 
 67.22         54 
 67.24         57 
 67.26         54 
 67.28         48 
 67.3          59 
 67.32         47 
 67.34         41 
 67.36         46 
 67.38         46 
 67.4          36 
 67.42         51 
 67.44         47 
 67.46         46 
 67.48         46 
 67.5          51 
 67.52         37 
 67.54         27 
 67.56         45 
 67.58         38 
 67.6          51 
 67.62         46 
 67.64         40 
 67.66         45 
 67.68         50 
 67.7          45 
 67.72         46 
 67.74         39 
 67.76         33 
 67.78         28 
 67.8          40 
 67.82         46 
 67.84         36 
 67.86         43 
 67.88         42 
 67.9          43 
 67.92         50 
 67.94         51 
 67.96         50 
 67.98         46 
 68            41 
 68.02         40 
 68.04         48 
 68.06         39 
 68.08         38 
 68.1          40 
 68.12         37 
 68.14         46 
 68.16         37 
 68.18         36 
 68.2          31 
 68.22         32 
 68.24         37 
 68.26         35 
 68.28         43 
 68.3          30 
 68.32         45 
 68.34         51 
 68.36         38 
 68.38         46 
 68.4          45 
 68.42         37 
 68.44         50 
 68.46         55 
 68.48         43 
 68.5          30 
 68.52         35 
 68.54         40 
 68.56         42 
 68.58         42 
 68.6          37 
 68.62         38 
 68.64         33 
 68.66         41 
 68.68         38 
 68.7          35 
 68.72         54 
 68.74         48 
 68.76         44 
 68.78         39 
 68.8          25 
 68.82         32 
 68.84         46 
 68.86         27 
 68.88         50 
 68.9          39 
 68.92         38 
 68.94         57 
 68.96         44 
 68.98         53 
 69            54 
 69.02         57 
 69.04         58 
 69.06         74 
 69.08         60 
 69.1          68 
 69.12         65 
 69.14         69 
 69.16         59 
 69.18         68 
 69.2          55 
 69.22         58 
 69.24         61 
 69.26         49 
 69.28         49 
 69.3          56 
 69.32         32 
 69.34         58 
 69.36         43 
 69.38         40 
 69.4          44 
 69.42         41 
 69.44         38 
 69.46         43 
 69.48         52 
 69.5          38 
 69.52         37 
 69.54         47 
 69.56         33 
 69.58         32 
 69.6          33 
 69.62         37 
 69.64         38 
 69.66         42 
 69.68         38 
 69.7          31 
 69.72         37 
 69.74         44 
 69.76         38 
 69.78         44 
 69.8          65 
 69.82         59 
 69.84         33 
 69.86         54 
 69.88         64 
 69.9          42 
 69.92         37 
 69.94         35 
 69.96         57 
 69.98         45 
 70            47 
 70.02         44 
 70.04         49 
 70.06         35 
 70.08         55 
 70.1          62 
 70.12         42 
 70.14         53 
 70.16         36 
 70.18         36 
 70.2          34 
 70.22         39 
 70.24         36 
 70.26         29 
 70.28         33 
 70.3          29 
 70.32         38 
 70.34         33 
 70.36         24 
 70.38         35 
 70.4          39 
 70.42         27 
 70.44         40 
 70.46         36 
 70.48         40 
 70.5          37 
 70.52         36 
 70.54         39 
 70.56         31 
 70.58         31 
 70.6          39 
 70.62         41 
 70.64         32 
 70.66         31 
 70.68         32 
 70.7          37 
 70.72         26 
 70.74         41 
 70.76         39 
 70.78         43 
 70.8          29 
 70.82         36 
 70.84         34 
 70.86         27 
 70.88         41 
 70.9          20 
 70.92         36 
 70.94         28 
 70.96         32 
 70.98         38 
 71            35 
 71.02         34 
 71.04         45 
 71.06         36 
 71.08         39 
 71.1          29 
 71.12         26 
 71.14         23 
 71.16         29 
 71.18         34 
 71.2          30 
 71.22         38 
 71.24         43 
 71.26         42 
 71.28         33 
 71.3          36 
 71.32         45 
 71.34         43 
 71.36         38 
 71.38         31 
 71.4          36 
 71.42         40 
 71.44         33 
 71.46         32 
 71.48         38 
 71.5          36 
 71.52         29 
 71.54         24 
 71.56         38 
 71.58         30 
 71.6          40 
 71.62         35 
 71.64         34 
 71.66         37 
 71.68         39 
 71.7          35 
 71.72         44 
 71.74         43 
 71.76         38 
 71.78         35 
 71.8          23 
 71.82         38 
 71.84         28 
 71.86         24 
 71.88         35 
 71.9          29 
 71.92         34 
 71.94         39 
 71.96         35 
 71.98         29 
 72            33 
 72.02         33 
 72.04         37 
 72.06         31 
 72.08         35 
 72.1          39 
 72.12         40 
 72.14         22 
 72.16         29 
 72.18         30 
 72.2          35 
 72.22         32 
 72.24         26 
 72.26         45 
 72.28         30 
 72.3          28 
 72.32         33 
 72.34         26 
 72.36         29 
 72.38         32 
 72.4          29 
 72.42         35 
 72.44         50 
 72.46         32 
 72.48         32 
 72.5          32 
 72.52         27 
 72.54         32 
 72.56         40 
 72.58         38 
 72.6          25 
 72.62         38 
 72.64         25 
 72.66         52 
 72.68         35 
 72.7          34 
 72.72         29 
 72.74         27 
 72.76         37 
 72.78         28 
 72.8          30 
 72.82         37 
 72.84         36 
 72.86         34 
 72.88         33 
 72.9          29 
 72.92         36 
 72.94         28 
 72.96         28 
 72.98         35 
 73            37 
 73.02         27 
 73.04         33 
 73.06         37 
 73.08         34 
 73.1          34 
 73.12         35 
 73.14         36 
 73.16         26 
 73.18         38 
 73.2          17 
 73.22         32 
 73.24         35 
 73.26         25 
 73.28         36 
 73.3          28 
 73.32         35 
 73.34         34 
 73.36         35 
 73.38         30 
 73.4          32 
 73.42         39 
 73.44         39 
 73.46         47 
 73.48         31 
 73.5          49 
 73.52         44 
 73.54         30 
 73.56         31 
 73.58         47 
 73.6          40 
 73.62         33 
 73.64         33 
 73.66         29 
 73.68         28 
 73.7          44 
 73.72         35 
 73.74         34 
 73.76         26 
 73.78         31 
 73.8          44 
 73.82         31 
 73.84         25 
 73.86         44 
 73.88         35 
 73.9          44 
 73.92         31 
 73.93999      32 
 73.96         41 
 73.98         31 
 74            49 
 74.02         39 
 74.04         38 
 74.06         45 
 74.08         53 
 74.1          45 
 74.12         43 
 74.14         44 
 74.16         46 
 74.18         48 
 74.2          52 
 74.22         65 
 74.24         76 
 74.26         83 
 74.28         90 
 74.3          120 
 74.32         172 
 74.34         198 
 74.36         305 
 74.38         362 
 74.4          400 
 74.42         392 
 74.43999      395 
 74.46         389 
 74.48         309 
 74.5          240 
 74.52         184 
 74.54         165 
 74.56         175 
 74.58         224 
 74.6          233 
 74.62         246 
 74.64         224 
 74.66         230 
 74.68         164 
 74.7          136 
 74.72         110 
 74.74         66 
 74.76         69 
 74.78         55 
 74.8          51 
 74.82         59 
 74.84         59 
 74.86         47 
 74.88         49 
 74.9          49 
 74.92         40 
 74.93999      32 
 74.96         29 
 74.98         49 
 75            33 
