LTO P 800 12h gesintert  Original Data
 3151 
 12            521 
 12.02         449 
 12.04         480 
 12.06         490 
 12.08         534 
 12.1          485 
 12.12         475 
 12.14         471 
 12.16         459 
 12.18         476 
 12.2          486 
 12.22         485 
 12.24         457 
 12.26         489 
 12.28         500 
 12.3          461 
 12.32         492 
 12.34         492 
 12.36         479 
 12.38         470 
 12.4          482 
 12.42         497 
 12.44         496 
 12.46         441 
 12.48         524 
 12.5          501 
 12.52         499 
 12.54         522 
 12.56         503 
 12.58         480 
 12.6          505 
 12.62         471 
 12.64         517 
 12.66         487 
 12.68         509 
 12.7          467 
 12.72         478 
 12.74         486 
 12.76         488 
 12.78         439 
 12.8          471 
 12.82         478 
 12.84         471 
 12.86         459 
 12.88         495 
 12.9          496 
 12.92         485 
 12.94         408 
 12.96         470 
 12.98         491 
 13            475 
 13.02         497 
 13.04         478 
 13.06         464 
 13.08         475 
 13.1          521 
 13.12         470 
 13.14         442 
 13.16         463 
 13.18         471 
 13.2          483 
 13.22         425 
 13.24         432 
 13.26         479 
 13.28         428 
 13.3          448 
 13.32         472 
 13.34         444 
 13.36         417 
 13.38         418 
 13.4          433 
 13.42         496 
 13.44         433 
 13.46         421 
 13.48         471 
 13.5          447 
 13.52         424 
 13.54         449 
 13.56         435 
 13.58         400 
 13.6          410 
 13.62         420 
 13.64         427 
 13.66         407 
 13.68         426 
 13.7          426 
 13.72         412 
 13.74         413 
 13.76         375 
 13.78         409 
 13.8          439 
 13.82         384 
 13.84         388 
 13.86         376 
 13.88         397 
 13.9          406 
 13.92         434 
 13.94         390 
 13.96         376 
 13.98         334 
 14            370 
 14.02         334 
 14.04         380 
 14.06         363 
 14.08         366 
 14.1          354 
 14.12         332 
 14.14         351 
 14.16         322 
 14.18         336 
 14.2          328 
 14.22         344 
 14.24         309 
 14.26         317 
 14.28         329 
 14.3          354 
 14.32         309 
 14.34         334 
 14.36         306 
 14.38         326 
 14.4          300 
 14.42         324 
 14.44         309 
 14.46         312 
 14.48         283 
 14.5          287 
 14.52         312 
 14.54         302 
 14.56         317 
 14.58         290 
 14.6          297 
 14.62         283 
 14.64         294 
 14.66         275 
 14.68         254 
 14.7          269 
 14.72         258 
 14.74         284 
 14.76         261 
 14.78         295 
 14.8          295 
 14.82         283 
 14.84         262 
 14.86         278 
 14.88         263 
 14.9          261 
 14.92         240 
 14.94         252 
 14.96         270 
 14.98         278 
 15            231 
 15.02         255 
 15.04         258 
 15.06         235 
 15.08         253 
 15.1          247 
 15.12         273 
 15.14         252 
 15.16         264 
 15.18         254 
 15.2          273 
 15.22         263 
 15.24         223 
 15.26         229 
 15.28         244 
 15.3          233 
 15.32         216 
 15.34         245 
 15.36         257 
 15.38         242 
 15.4          223 
 15.42         199 
 15.44         216 
 15.46         232 
 15.48         233 
 15.5          226 
 15.52         242 
 15.54         221 
 15.56         216 
 15.58         228 
 15.6          208 
 15.62         223 
 15.64         201 
 15.66         186 
 15.68         226 
 15.7          217 
 15.72         181 
 15.74         196 
 15.76         201 
 15.78         220 
 15.8          224 
 15.82         209 
 15.84         221 
 15.86         196 
 15.88         178 
 15.9          202 
 15.92         234 
 15.94         205 
 15.96         222 
 15.98         208 
 16            183 
 16.02         174 
 16.04         190 
 16.06         227 
 16.08         185 
 16.1          217 
 16.12         178 
 16.14         203 
 16.16         207 
 16.18         209 
 16.2          188 
 16.22         196 
 16.24         187 
 16.26         199 
 16.28         184 
 16.3          188 
 16.32         184 
 16.34         180 
 16.36         169 
 16.38         202 
 16.4          195 
 16.42         178 
 16.44         172 
 16.46         198 
 16.48         161 
 16.5          169 
 16.52         187 
 16.54         174 
 16.56         170 
 16.58         180 
 16.6          189 
 16.62         151 
 16.64         171 
 16.66         169 
 16.68         177 
 16.7          183 
 16.72         169 
 16.74         154 
 16.76         172 
 16.78         173 
 16.8          143 
 16.82         186 
 16.84         182 
 16.86         170 
 16.88         194 
 16.9          144 
 16.92         157 
 16.94         161 
 16.96         167 
 16.98         154 
 17            183 
 17.02         183 
 17.04         167 
 17.06         170 
 17.08         149 
 17.1          150 
 17.12         154 
 17.14         131 
 17.16         153 
 17.18         151 
 17.2          148 
 17.22         140 
 17.24         161 
 17.26         169 
 17.28         158 
 17.3          173 
 17.32         131 
 17.34         156 
 17.36         160 
 17.38         147 
 17.4          139 
 17.42         133 
 17.44         144 
 17.46         125 
 17.48         144 
 17.5          141 
 17.52         146 
 17.54         140 
 17.56         140 
 17.58         153 
 17.6          138 
 17.62         142 
 17.64         152 
 17.66         140 
 17.68         143 
 17.7          144 
 17.72         119 
 17.74         140 
 17.76         147 
 17.78         153 
 17.8          152 
 17.82         113 
 17.84         128 
 17.86         157 
 17.88         158 
 17.9          160 
 17.92         134 
 17.94         135 
 17.96         125 
 17.98         124 
 18            123 
 18.02         152 
 18.04         140 
 18.06         131 
 18.08         119 
 18.1          138 
 18.12         135 
 18.14         152 
 18.16         123 
 18.18         133 
 18.2          157 
 18.22         145 
 18.24         141 
 18.26         155 
 18.28         145 
 18.3          178 
 18.32         180 
 18.34         176 
 18.36         214 
 18.38         239 
 18.4          239 
 18.42         256 
 18.44         292 
 18.46         293 
 18.48         292 
 18.5          314 
 18.52         265 
 18.54         215 
 18.56         216 
 18.58         220 
 18.6          192 
 18.62         169 
 18.64         163 
 18.66         138 
 18.68         114 
 18.7          137 
 18.72         138 
 18.74         120 
 18.76         130 
 18.78         123 
 18.8          143 
 18.82         129 
 18.84         127 
 18.86         108 
 18.88         101 
 18.9          152 
 18.92         131 
 18.94         120 
 18.96         119 
 18.98         119 
 19            108 
 19.02         113 
 19.04         117 
 19.06         131 
 19.08         116 
 19.1          123 
 19.12         126 
 19.14         119 
 19.16         110 
 19.18         126 
 19.2          125 
 19.22         118 
 19.24         118 
 19.26         114 
 19.28         125 
 19.3          135 
 19.32         113 
 19.34         115 
 19.36         123 
 19.38         109 
 19.4          122 
 19.42         105 
 19.44         129 
 19.46         94 
 19.48         111 
 19.5          118 
 19.52         113 
 19.54         139 
 19.56         119 
 19.58         112 
 19.6          118 
 19.62         143 
 19.64         112 
 19.66         131 
 19.68         153 
 19.7          137 
 19.72         177 
 19.74         185 
 19.76         207 
 19.78         233 
 19.8          268 
 19.82         322 
 19.84         412 
 19.86         539 
 19.88         662 
 19.9          979 
 19.92         1259 
 19.94         1644 
 19.96         1952 
 19.98         2019 
 20            1983 
 20.02         1707 
 20.04         1252 
 20.06         835 
 20.08         559 
 20.1          401 
 20.12         318 
 20.14         245 
 20.16         217 
 20.18         206 
 20.2          198 
 20.22         224 
 20.24         172 
 20.26         167 
 20.28         180 
 20.3          159 
 20.32         151 
 20.34         163 
 20.36         137 
 20.38         144 
 20.4          126 
 20.42         143 
 20.44         150 
 20.46         151 
 20.48         139 
 20.5          129 
 20.52         143 
 20.54         132 
 20.56         115 
 20.58         110 
 20.6          126 
 20.62         116 
 20.64         129 
 20.66         104 
 20.68         103 
 20.7          99 
 20.72         103 
 20.74         118 
 20.76         95 
 20.78         123 
 20.8          116 
 20.82         99 
 20.84         105 
 20.86         113 
 20.88         105 
 20.9          109 
 20.92         113 
 20.94         102 
 20.96         111 
 20.98         113 
 21            103 
 21.02         110 
 21.04         109 
 21.06         116 
 21.08         99 
 21.1          115 
 21.12         111 
 21.14         85 
 21.16         96 
 21.18         85 
 21.2          132 
 21.22         109 
 21.24         87 
 21.26         111 
 21.28         94 
 21.3          104 
 21.32         104 
 21.34         89 
 21.36         95 
 21.38         100 
 21.4          106 
 21.42         115 
 21.44         103 
 21.46         98 
 21.48         97 
 21.5          79 
 21.52         104 
 21.54         93 
 21.56         94 
 21.58         84 
 21.6          72 
 21.62         85 
 21.64         100 
 21.66         100 
 21.68         108 
 21.7          85 
 21.72         126 
 21.74         95 
 21.76         94 
 21.78         85 
 21.8          93 
 21.82         106 
 21.84         98 
 21.86         100 
 21.88         84 
 21.9          91 
 21.92         100 
 21.94         85 
 21.96         82 
 21.98         84 
 22            80 
 22.02         102 
 22.04         88 
 22.06         82 
 22.08         92 
 22.1          92 
 22.12         88 
 22.14         84 
 22.16         98 
 22.18         104 
 22.2          102 
 22.22         95 
 22.24         95 
 22.26         108 
 22.28         100 
 22.3          126 
 22.32         106 
 22.34         95 
 22.36         75 
 22.38         96 
 22.4          99 
 22.42         85 
 22.44         90 
 22.46         106 
 22.48         85 
 22.5          107 
 22.52         82 
 22.54         72 
 22.56         77 
 22.58         85 
 22.6          99 
 22.62         82 
 22.64         64 
 22.66         87 
 22.68         91 
 22.7          94 
 22.72         76 
 22.74         96 
 22.76         82 
 22.78         81 
 22.8          88 
 22.82         86 
 22.84         92 
 22.86         83 
 22.88         93 
 22.9          89 
 22.92         104 
 22.94         80 
 22.96         88 
 22.98         82 
 23            98 
 23.02         84 
 23.04         95 
 23.06         86 
 23.08         84 
 23.1          95 
 23.12         91 
 23.14         74 
 23.16         85 
 23.18         88 
 23.2          85 
 23.22         99 
 23.24         86 
 23.26         83 
 23.28         93 
 23.3          78 
 23.32         63 
 23.34         79 
 23.36         78 
 23.38         82 
 23.4          73 
 23.42         78 
 23.44         82 
 23.46         85 
 23.48         78 
 23.5          80 
 23.52         82 
 23.54         86 
 23.56         91 
 23.58         94 
 23.6          80 
 23.62         70 
 23.64         96 
 23.66         88 
 23.68         72 
 23.7          71 
 23.72         92 
 23.74         89 
 23.76         76 
 23.78         79 
 23.8          82 
 23.82         72 
 23.84         82 
 23.86         95 
 23.88         82 
 23.9          76 
 23.92         85 
 23.94         85 
 23.96         90 
 23.98         61 
 24            81 
 24.02         79 
 24.04         94 
 24.06         81 
 24.08         78 
 24.1          85 
 24.12         87 
 24.14         82 
 24.16         88 
 24.18         88 
 24.2          83 
 24.22         75 
 24.24         78 
 24.26         82 
 24.28         74 
 24.3          81 
 24.32         70 
 24.34         68 
 24.36         79 
 24.38         78 
 24.4          68 
 24.42         69 
 24.44         59 
 24.46         83 
 24.48         71 
 24.5          69 
 24.52         84 
 24.54         71 
 24.56         87 
 24.58         86 
 24.6          80 
 24.62         83 
 24.64         87 
 24.66         86 
 24.68         86 
 24.7          64 
 24.72         84 
 24.74         84 
 24.76         67 
 24.78         76 
 24.8          68 
 24.82         67 
 24.84         69 
 24.86         75 
 24.88         85 
 24.9          74 
 24.92         69 
 24.94         73 
 24.96         96 
 24.98         65 
 25            74 
 25.02         69 
 25.04         64 
 25.06         82 
 25.08         69 
 25.1          66 
 25.12         77 
 25.14         80 
 25.16         79 
 25.18         94 
 25.2          71 
 25.22         64 
 25.24         93 
 25.26         74 
 25.28         65 
 25.3          74 
 25.32         99 
 25.34         84 
 25.36         89 
 25.38         83 
 25.4          99 
 25.42         87 
 25.44         66 
 25.46         73 
 25.48         80 
 25.5          74 
 25.52         104 
 25.54         67 
 25.56         70 
 25.58         98 
 25.6          91 
 25.62         110 
 25.64         117 
 25.66         140 
 25.68         163 
 25.7          189 
 25.72         198 
 25.74         211 
 25.76         240 
 25.78         205 
 25.8          197 
 25.82         179 
 25.84         131 
 25.86         103 
 25.88         92 
 25.9          88 
 25.92         91 
 25.94         94 
 25.96         80 
 25.98         99 
 26            102 
 26.02         97 
 26.04         86 
 26.06         83 
 26.08         80 
 26.1          76 
 26.12         67 
 26.14         70 
 26.16         68 
 26.18         76 
 26.2          80 
 26.22         71 
 26.24         80 
 26.26         61 
 26.28         66 
 26.3          66 
 26.32         75 
 26.34         73 
 26.36         59 
 26.38         68 
 26.4          59 
 26.42         51 
 26.44         66 
 26.46         66 
 26.48         66 
 26.5          66 
 26.52         77 
 26.54         58 
 26.56         74 
 26.58         57 
 26.6          73 
 26.62         76 
 26.64         60 
 26.66         63 
 26.68         63 
 26.7          77 
 26.72         67 
 26.74         69 
 26.76         63 
 26.78         68 
 26.8          72 
 26.82         69 
 26.84         74 
 26.86         61 
 26.88         59 
 26.9          68 
 26.92         78 
 26.94         70 
 26.96         65 
 26.98         60 
 27            63 
 27.02         64 
 27.04         64 
 27.06         53 
 27.08         61 
 27.1          62 
 27.12         68 
 27.14         80 
 27.16         72 
 27.18         66 
 27.2          55 
 27.22         73 
 27.24         57 
 27.26         68 
 27.28         60 
 27.3          77 
 27.32         57 
 27.34         63 
 27.36         63 
 27.38         70 
 27.4          64 
 27.42         63 
 27.44         61 
 27.46         63 
 27.48         77 
 27.5          71 
 27.52         65 
 27.54         63 
 27.56         59 
 27.58         61 
 27.6          60 
 27.62         72 
 27.64         56 
 27.66         68 
 27.68         65 
 27.7          61 
 27.72         55 
 27.74         65 
 27.76         59 
 27.78         61 
 27.8          60 
 27.82         78 
 27.84         52 
 27.86         57 
 27.88         65 
 27.9          57 
 27.92         67 
 27.94         63 
 27.96         44 
 27.98         61 
 28            58 
 28.02         70 
 28.04         53 
 28.06         56 
 28.08         58 
 28.1          53 
 28.12         81 
 28.14         51 
 28.16         56 
 28.18         74 
 28.2          44 
 28.22         69 
 28.24         53 
 28.26         64 
 28.28         72 
 28.3          46 
 28.32         53 
 28.34         63 
 28.36         59 
 28.38         76 
 28.4          55 
 28.42         63 
 28.44         53 
 28.46         64 
 28.48         56 
 28.5          61 
 28.52         56 
 28.54         59 
 28.56         58 
 28.58         50 
 28.6          54 
 28.62         56 
 28.64         60 
 28.66         52 
 28.68         51 
 28.7          57 
 28.72         66 
 28.74         44 
 28.76         52 
 28.78         65 
 28.8          40 
 28.82         33 
 28.84         54 
 28.86         68 
 28.88         54 
 28.9          56 
 28.92         60 
 28.94         55 
 28.96         48 
 28.98         54 
 29            52 
 29.02         61 
 29.04         52 
 29.06         58 
 29.08         54 
 29.1          42 
 29.12         44 
 29.14         54 
 29.16         49 
 29.18         44 
 29.2          65 
 29.22         66 
 29.24         51 
 29.26         65 
 29.28         53 
 29.3          45 
 29.32         52 
 29.34         51 
 29.36         56 
 29.38         73 
 29.4          62 
 29.42         54 
 29.44         53 
 29.46         62 
 29.48         52 
 29.5          51 
 29.52         38 
 29.54         49 
 29.56         44 
 29.58         59 
 29.6          60 
 29.62         58 
 29.64         58 
 29.66         57 
 29.68         44 
 29.7          67 
 29.72         67 
 29.74         47 
 29.76         63 
 29.78         53 
 29.8          60 
 29.82         61 
 29.84         74 
 29.86         44 
 29.88         45 
 29.9          48 
 29.92         45 
 29.94         59 
 29.96         57 
 29.98         68 
 30            47 
 30.02         46 
 30.04         61 
 30.06         47 
 30.08         60 
 30.1          41 
 30.12         61 
 30.14         59 
 30.16         45 
 30.18         60 
 30.2          39 
 30.22         45 
 30.24         50 
 30.26         37 
 30.28         46 
 30.3          52 
 30.32         52 
 30.34         57 
 30.36         48 
 30.38         38 
 30.4          51 
 30.42         35 
 30.44         43 
 30.46         46 
 30.48         44 
 30.5          61 
 30.52         60 
 30.54         37 
 30.56         50 
 30.58         49 
 30.6          45 
 30.62         53 
 30.64         60 
 30.66         53 
 30.68         60 
 30.7          50 
 30.72         56 
 30.74         54 
 30.76         62 
 30.78         53 
 30.8          49 
 30.82         49 
 30.84         37 
 30.86         48 
 30.88         43 
 30.9          55 
 30.92         42 
 30.94         62 
 30.96         44 
 30.98         51 
 31            52 
 31.02         62 
 31.04         50 
 31.06         52 
 31.08         44 
 31.1          58 
 31.12         40 
 31.14         55 
 31.16         54 
 31.18         33 
 31.2          46 
 31.22         48 
 31.24         36 
 31.26         47 
 31.28         50 
 31.3          57 
 31.32         50 
 31.34         53 
 31.36         46 
 31.38         54 
 31.4          55 
 31.42         48 
 31.44         46 
 31.46         42 
 31.48         52 
 31.5          53 
 31.52         52 
 31.54         47 
 31.56         57 
 31.58         51 
 31.6          41 
 31.62         54 
 31.64         51 
 31.66         51 
 31.68         40 
 31.7          42 
 31.72         59 
 31.74         54 
 31.76         56 
 31.78         53 
 31.8          40 
 31.82         47 
 31.84         58 
 31.86         48 
 31.88         40 
 31.9          62 
 31.92         56 
 31.94         42 
 31.96         44 
 31.98         30 
 32            54 
 32.02         44 
 32.04         44 
 32.06         42 
 32.08         59 
 32.1          34 
 32.12         49 
 32.14         45 
 32.16         43 
 32.18         44 
 32.2          37 
 32.22         47 
 32.24         52 
 32.26         47 
 32.28         51 
 32.3          50 
 32.32         48 
 32.34         37 
 32.36         45 
 32.38         65 
 32.4          56 
 32.42         48 
 32.44         50 
 32.46         34 
 32.48         43 
 32.5          46 
 32.52         46 
 32.54         48 
 32.56         49 
 32.58         49 
 32.6          38 
 32.62         57 
 32.64         59 
 32.66         47 
 32.68         59 
 32.7          48 
 32.72         45 
 32.74         52 
 32.76         54 
 32.78         45 
 32.8          53 
 32.82         50 
 32.84         48 
 32.86         50 
 32.88         45 
 32.9          57 
 32.92         52 
 32.94         64 
 32.96         57 
 32.98         78 
 33            63 
 33.02         68 
 33.04         66 
 33.06         77 
 33.08         69 
 33.1          80 
 33.12         76 
 33.14         112 
 33.16         148 
 33.18         202 
 33.2          281 
 33.22         402 
 33.24         539 
 33.26         719 
 33.28         934 
 33.3          1036 
 33.32         1088 
 33.34         1030 
 33.36         949 
 33.38         731 
 33.4          585 
 33.42         430 
 33.44         350 
 33.46         230 
 33.48         178 
 33.5          167 
 33.52         116 
 33.54         110 
 33.56         84 
 33.58         96 
 33.6          66 
 33.62         72 
 33.64         65 
 33.66         57 
 33.68         62 
 33.7          54 
 33.72         57 
 33.74         39 
 33.76         57 
 33.78         60 
 33.8          55 
 33.82         49 
 33.84         53 
 33.86         44 
 33.88         50 
 33.9          36 
 33.92         46 
 33.94         48 
 33.96         52 
 33.98         44 
 34            50 
 34.02         37 
 34.04         54 
 34.06         50 
 34.08         56 
 34.1          47 
 34.12         37 
 34.14         45 
 34.16         42 
 34.18         33 
 34.2          46 
 34.22         53 
 34.24         44 
 34.26         50 
 34.28         43 
 34.3          36 
 34.32         43 
 34.34         40 
 34.36         41 
 34.38         44 
 34.4          36 
 34.42         35 
 34.44         41 
 34.46         48 
 34.48         35 
 34.5          32 
 34.52         39 
 34.54         36 
 34.56         28 
 34.58         52 
 34.6          41 
 34.62         31 
 34.64         44 
 34.66         35 
 34.68         38 
 34.7          45 
 34.72         29 
 34.74         46 
 34.76         39 
 34.78         50 
 34.8          47 
 34.82         43 
 34.84         40 
 34.86         42 
 34.88         40 
 34.9          37 
 34.92         44 
 34.94         40 
 34.96         41 
 34.98         52 
 35            50 
 35.02         40 
 35.04         42 
 35.06         37 
 35.08         30 
 35.1          32 
 35.12         43 
 35.14         39 
 35.16         41 
 35.18         45 
 35.2          56 
 35.22         52 
 35.24         59 
 35.26         59 
 35.28         59 
 35.3          67 
 35.32         86 
 35.34         104 
 35.36         85 
 35.38         76 
 35.4          73 
 35.42         76 
 35.44         56 
 35.46         69 
 35.48         61 
 35.5          60 
 35.52         60 
 35.54         72 
 35.56         69 
 35.58         70 
 35.6          81 
 35.62         94 
 35.64         101 
 35.66         148 
 35.68         157 
 35.7          220 
 35.72         312 
 35.74         411 
 35.76         496 
 35.78         592 
 35.8          656 
 35.82         642 
 35.84         596 
 35.86         446 
 35.88         447 
 35.9          348 
 35.92         293 
 35.94         253 
 35.96         220 
 35.98         152 
 36            136 
 36.02         135 
 36.04         93 
 36.06         95 
 36.08         95 
 36.1          67 
 36.12         59 
 36.14         63 
 36.16         60 
 36.18         45 
 36.2          71 
 36.22         65 
 36.24         52 
 36.26         71 
 36.28         65 
 36.3          57 
 36.32         57 
 36.34         59 
 36.36         77 
 36.38         86 
 36.4          76 
 36.42         103 
 36.44         129 
 36.46         139 
 36.48         166 
 36.5          258 
 36.52         329 
 36.54         422 
 36.56         567 
 36.58         623 
 36.6          578 
 36.62         579 
 36.64         547 
 36.66         477 
 36.68         375 
 36.7          296 
 36.72         227 
 36.74         190 
 36.76         110 
 36.78         109 
 36.8          62 
 36.82         59 
 36.84         52 
 36.86         34 
 36.88         48 
 36.9          39 
 36.92         47 
 36.94         49 
 36.96         41 
 36.98         43 
 37            34 
 37.02         41 
 37.04         38 
 37.06         42 
 37.08         36 
 37.1          36 
 37.12         32 
 37.14         33 
 37.16         32 
 37.18         45 
 37.2          25 
 37.22         32 
 37.24         28 
 37.26         50 
 37.28         27 
 37.3          36 
 37.32         32 
 37.34         39 
 37.36         27 
 37.38         28 
 37.4          32 
 37.42         33 
 37.44         39 
 37.46         41 
 37.48         37 
 37.5          32 
 37.52         50 
 37.54         56 
 37.56         65 
 37.58         63 
 37.6          64 
 37.62         76 
 37.64         78 
 37.66         70 
 37.68         77 
 37.7          71 
 37.72         66 
 37.74         58 
 37.76         55 
 37.78         43 
 37.8          43 
 37.82         25 
 37.84         26 
 37.86         40 
 37.88         28 
 37.9          36 
 37.92         36 
 37.94         37 
 37.96         35 
 37.98         29 
 38            22 
 38.02         33 
 38.04         37 
 38.06         30 
 38.08         29 
 38.1          28 
 38.12         35 
 38.14         30 
 38.16         29 
 38.18         35 
 38.2          28 
 38.22         34 
 38.24         43 
 38.26         36 
 38.28         33 
 38.3          29 
 38.32         25 
 38.34         34 
 38.36         29 
 38.38         23 
 38.4          25 
 38.42         22 
 38.44         26 
 38.46         24 
 38.48         28 
 38.5          26 
 38.52         38 
 38.54         27 
 38.56         35 
 38.58         38 
 38.6          30 
 38.62         24 
 38.64         32 
 38.66         34 
 38.68         24 
 38.7          25 
 38.72         27 
 38.74         38 
 38.76         29 
 38.78         27 
 38.8          31 
 38.82         33 
 38.84         48 
 38.86         30 
 38.88         22 
 38.9          27 
 38.92         27 
 38.94         24 
 38.96         28 
 38.98         27 
 39            22 
 39.02         33 
 39.04         26 
 39.06         22 
 39.08         21 
 39.1          38 
 39.12         30 
 39.14         27 
 39.16         25 
 39.18         34 
 39.2          21 
 39.22         30 
 39.24         30 
 39.26         22 
 39.28         34 
 39.3          38 
 39.32         23 
 39.34         27 
 39.36         33 
 39.38         29 
 39.4          22 
 39.42         33 
 39.44         34 
 39.46         20 
 39.48         35 
 39.5          31 
 39.52         28 
 39.54         38 
 39.56         26 
 39.58         32 
 39.6          35 
 39.62         35 
 39.64         41 
 39.66         38 
 39.68         42 
 39.7          35 
 39.72         44 
 39.74         39 
 39.76         24 
 39.78         37 
 39.8          34 
 39.82         48 
 39.84         54 
 39.86         49 
 39.88         57 
 39.9          54 
 39.92         62 
 39.94         72 
 39.96         75 
 39.98         76 
 40            87 
 40.02         113 
 40.04         134 
 40.06         164 
 40.08         253 
 40.1          368 
 40.12         442 
 40.14         583 
 40.16         699 
 40.18         858 
 40.2          886 
 40.22         804 
 40.24         719 
 40.26         636 
 40.28         529 
 40.3          473 
 40.32         392 
 40.34         251 
 40.36         217 
 40.38         164 
 40.4          121 
 40.42         91 
 40.44         64 
 40.46         76 
 40.48         69 
 40.5          69 
 40.52         85 
 40.54         86 
 40.56         74 
 40.58         71 
 40.6          85 
 40.62         82 
 40.64         74 
 40.66         72 
 40.68         67 
 40.7          65 
 40.72         72 
 40.74         59 
 40.76         45 
 40.78         44 
 40.8          43 
 40.82         38 
 40.84         31 
 40.86         54 
 40.88         44 
 40.9          37 
 40.92         39 
 40.94         33 
 40.96         42 
 40.98         36 
 41            36 
 41.02         36 
 41.04         43 
 41.06         39 
 41.08         30 
 41.1          35 
 41.12         21 
 41.14         26 
 41.16         36 
 41.18         24 
 41.2          27 
 41.22         25 
 41.24         33 
 41.26         27 
 41.28         35 
 41.3          26 
 41.32         37 
 41.34         26 
 41.36         22 
 41.38         32 
 41.4          23 
 41.42         30 
 41.44         43 
 41.46         27 
 41.48         35 
 41.5          31 
 41.52         32 
 41.54         39 
 41.56         29 
 41.58         29 
 41.6          29 
 41.62         24 
 41.64         37 
 41.66         44 
 41.68         40 
 41.7          43 
 41.72         39 
 41.74         51 
 41.76         51 
 41.78         67 
 41.8          99 
 41.82         119 
 41.84         166 
 41.86         164 
 41.88         164 
 41.9          136 
 41.92         133 
 41.94         121 
 41.96         110 
 41.98         94 
 42            68 
 42.02         64 
 42.04         67 
 42.06         60 
 42.08         42 
 42.1          43 
 42.12         35 
 42.14         33 
 42.16         31 
 42.18         29 
 42.2          30 
 42.22         34 
 42.24         26 
 42.26         26 
 42.28         29 
 42.3          21 
 42.32         29 
 42.34         25 
 42.36         36 
 42.38         26 
 42.4          27 
 42.42         19 
 42.44         33 
 42.46         19 
 42.48         23 
 42.5          32 
 42.52         27 
 42.54         30 
 42.56         33 
 42.58         29 
 42.6          31 
 42.62         32 
 42.64         30 
 42.66         26 
 42.68         23 
 42.7          25 
 42.72         29 
 42.74         21 
 42.76         25 
 42.78         24 
 42.8          33 
 42.82         36 
 42.84         30 
 42.86         35 
 42.88         28 
 42.9          26 
 42.92         29 
 42.94         31 
 42.96         20 
 42.98         26 
 43            25 
 43.02         36 
 43.04         25 
 43.06         22 
 43.08         34 
 43.1          31 
 43.12         31 
 43.14         31 
 43.16         41 
 43.18         33 
 43.2          36 
 43.22         34 
 43.24         37 
 43.26         50 
 43.28         53 
 43.3          44 
 43.32         64 
 43.34         72 
 43.36         66 
 43.38         74 
 43.4          77 
 43.42         93 
 43.44         82 
 43.46         111 
 43.48         142 
 43.5          184 
 43.52         185 
 43.54         187 
 43.56         208 
 43.58         251 
 43.6          241 
 43.62         240 
 43.64         233 
 43.66         225 
 43.68         274 
 43.7          217 
 43.72         225 
 43.74         207 
 43.76         158 
 43.78         136 
 43.8          114 
 43.82         100 
 43.84         100 
 43.86         79 
 43.88         57 
 43.9          54 
 43.92         45 
 43.94         59 
 43.96         54 
 43.98         40 
 44            26 
 44.02         25 
 44.04         30 
 44.06         31 
 44.08         27 
 44.1          31 
 44.12         19 
 44.14         34 
 44.16         30 
 44.18         31 
 44.2          34 
 44.22         31 
 44.24         38 
 44.26         19 
 44.28         20 
 44.3          24 
 44.32         29 
 44.34         26 
 44.36         29 
 44.38         27 
 44.4          26 
 44.42         21 
 44.44         19 
 44.46         27 
 44.48         26 
 44.5          37 
 44.52         32 
 44.54         20 
 44.56         23 
 44.58         28 
 44.6          25 
 44.62         26 
 44.64         33 
 44.66         24 
 44.68         29 
 44.7          20 
 44.72         24 
 44.74         28 
 44.76         19 
 44.78         28 
 44.8          24 
 44.82         27 
 44.84         30 
 44.86         37 
 44.88         33 
 44.9          38 
 44.92         25 
 44.94         25 
 44.96         17 
 44.98         28 
 45            20 
 45.02         23 
 45.04         21 
 45.06         24 
 45.08         30 
 45.1          26 
 45.12         31 
 45.14         29 
 45.16         30 
 45.18         36 
 45.2          26 
 45.22         29 
 45.24         21 
 45.26         31 
 45.28         33 
 45.3          35 
 45.32         31 
 45.34         38 
 45.36         48 
 45.38         31 
 45.4          45 
 45.42         42 
 45.44         42 
 45.46         54 
 45.48         68 
 45.5          67 
 45.52         97 
 45.54         88 
 45.56         125 
 45.58         194 
 45.6          244 
 45.62         290 
 45.64         364 
 45.66         409 
 45.68         416 
 45.7          394 
 45.72         317 
 45.74         314 
 45.76         263 
 45.78         274 
 45.8          234 
 45.82         192 
 45.84         129 
 45.86         109 
 45.88         101 
 45.9          96 
 45.92         91 
 45.94         118 
 45.96         134 
 45.98         170 
 46            208 
 46.02         235 
 46.04         261 
 46.06         247 
 46.08         189 
 46.1          195 
 46.12         185 
 46.14         164 
 46.16         167 
 46.18         140 
 46.2          87 
 46.22         84 
 46.24         71 
 46.26         61 
 46.28         44 
 46.3          48 
 46.32         43 
 46.34         38 
 46.36         30 
 46.38         37 
 46.4          42 
 46.42         27 
 46.44         36 
 46.46         37 
 46.48         22 
 46.5          36 
 46.52         30 
 46.54         32 
 46.56         31 
 46.58         21 
 46.6          22 
 46.62         37 
 46.64         27 
 46.66         24 
 46.68         23 
 46.7          31 
 46.72         27 
 46.74         29 
 46.76         22 
 46.78         27 
 46.8          28 
 46.82         42 
 46.84         25 
 46.86         34 
 46.88         22 
 46.9          30 
 46.92         31 
 46.94         25 
 46.96         25 
 46.98         29 
 47            28 
 47.02         22 
 47.04         29 
 47.06         30 
 47.08         27 
 47.1          37 
 47.12         20 
 47.14         27 
 47.16         20 
 47.18         34 
 47.2          26 
 47.22         27 
 47.24         25 
 47.26         30 
 47.28         34 
 47.3          28 
 47.32         21 
 47.34         23 
 47.36         22 
 47.38         27 
 47.4          22 
 47.42         30 
 47.44         21 
 47.46         21 
 47.48         25 
 47.5          30 
 47.52         20 
 47.54         25 
 47.56         26 
 47.58         36 
 47.6          50 
 47.62         41 
 47.64         36 
 47.66         25 
 47.68         42 
 47.7          38 
 47.72         35 
 47.74         30 
 47.76         42 
 47.78         43 
 47.8          38 
 47.82         37 
 47.84         38 
 47.86         38 
 47.88         41 
 47.9          25 
 47.92         34 
 47.94         32 
 47.96         26 
 47.98         21 
 48            30 
 48.02         29 
 48.04         24 
 48.06         28 
 48.08         24 
 48.1          28 
 48.12         33 
 48.14         21 
 48.16         21 
 48.18         29 
 48.2          27 
 48.22         26 
 48.24         20 
 48.26         22 
 48.28         30 
 48.3          28 
 48.32         21 
 48.34         21 
 48.36         24 
 48.38         30 
 48.4          18 
 48.42         21 
 48.44         41 
 48.46         26 
 48.48         22 
 48.5          26 
 48.52         24 
 48.54         28 
 48.56         30 
 48.58         41 
 48.6          27 
 48.62         23 
 48.64         26 
 48.66         35 
 48.68         24 
 48.7          24 
 48.72         26 
 48.74         21 
 48.76         17 
 48.78         29 
 48.8          32 
 48.82         33 
 48.84         28 
 48.86         37 
 48.88         21 
 48.9          36 
 48.92         33 
 48.94         38 
 48.96         32 
 48.98         48 
 49            60 
 49.02         63 
 49.04         80 
 49.06         76 
 49.08         85 
 49.1          99 
 49.12         98 
 49.14         83 
 49.16         78 
 49.18         55 
 49.2          60 
 49.22         77 
 49.24         52 
 49.26         41 
 49.28         52 
 49.3          48 
 49.32         44 
 49.34         35 
 49.36         34 
 49.38         31 
 49.4          32 
 49.42         19 
 49.44         26 
 49.46         20 
 49.48         28 
 49.5          35 
 49.52         32 
 49.54         25 
 49.56         31 
 49.58         16 
 49.6          23 
 49.62         28 
 49.64         16 
 49.66         14 
 49.68         35 
 49.7          20 
 49.72         24 
 49.74         27 
 49.76         25 
 49.78         20 
 49.8          28 
 49.82         27 
 49.84         26 
 49.86         21 
 49.88         27 
 49.9          25 
 49.92         24 
 49.94         17 
 49.96         23 
 49.98         24 
 50            26 
 50.02         24 
 50.04         25 
 50.06         25 
 50.08         25 
 50.1          20 
 50.12         25 
 50.14         30 
 50.16         29 
 50.18         23 
 50.2          32 
 50.22         25 
 50.24         19 
 50.26         25 
 50.28         25 
 50.3          22 
 50.32         32 
 50.34         18 
 50.36         18 
 50.38         27 
 50.4          24 
 50.42         16 
 50.44         28 
 50.46         29 
 50.48         25 
 50.5          27 
 50.52         19 
 50.54         27 
 50.56         36 
 50.58         27 
 50.6          26 
 50.62         28 
 50.64         28 
 50.66         31 
 50.68         25 
 50.7          23 
 50.72         24 
 50.74         17 
 50.76         27 
 50.78         26 
 50.8          34 
 50.82         29 
 50.84         33 
 50.86         33 
 50.88         34 
 50.9          31 
 50.92         35 
 50.94         23 
 50.96         29 
 50.98         31 
 51            25 
 51.02         35 
 51.04         35 
 51.06         36 
 51.08         28 
 51.1          45 
 51.12         49 
 51.14         49 
 51.16         58 
 51.18         51 
 51.2          53 
 51.22         57 
 51.24         57 
 51.26         72 
 51.28         82 
 51.3          86 
 51.32         100 
 51.34         135 
 51.36         176 
 51.38         193 
 51.4          263 
 51.42         362 
 51.44         509 
 51.46         657 
 51.48         741 
 51.5          818 
 51.52         825 
 51.54         762 
 51.56         715 
 51.58         649 
 51.6          568 
 51.62         523 
 51.64         497 
 51.66         434 
 51.68         350 
 51.7          277 
 51.72         194 
 51.74         151 
 51.76         105 
 51.78         93 
 51.8          72 
 51.82         61 
 51.84         62 
 51.86         44 
 51.88         36 
 51.9          46 
 51.92         42 
 51.94         35 
 51.96         42 
 51.98         38 
 52            35 
 52.02         41 
 52.04         38 
 52.06         40 
 52.08         37 
 52.1          41 
 52.12         37 
 52.14         26 
 52.16         28 
 52.18         30 
 52.2          29 
 52.22         31 
 52.24         26 
 52.26         32 
 52.28         33 
 52.3          37 
 52.32         26 
 52.34         33 
 52.36         28 
 52.38         33 
 52.4          35 
 52.42         37 
 52.44         36 
 52.46         32 
 52.48         32 
 52.5          38 
 52.52         32 
 52.54         47 
 52.56         54 
 52.58         52 
 52.6          52 
 52.62         54 
 52.64         60 
 52.66         50 
 52.68         63 
 52.7          66 
 52.72         62 
 52.74         74 
 52.76         96 
 52.78         127 
 52.8          193 
 52.82         232 
 52.84         352 
 52.86         480 
 52.88         528 
 52.9          531 
 52.92         562 
 52.94         499 
 52.96         404 
 52.98         380 
 53            354 
 53.02         348 
 53.04         340 
 53.06         301 
 53.08         225 
 53.1          169 
 53.12         138 
 53.14         95 
 53.16         80 
 53.18         71 
 53.2          66 
 53.22         61 
 53.24         47 
 53.26         35 
 53.28         46 
 53.3          39 
 53.32         38 
 53.34         44 
 53.36         37 
 53.38         32 
 53.4          43 
 53.42         41 
 53.44         25 
 53.46         37 
 53.48         41 
 53.5          27 
 53.52         33 
 53.54         35 
 53.56         30 
 53.58         26 
 53.6          32 
 53.62         34 
 53.64         30 
 53.66         35 
 53.68         23 
 53.7          30 
 53.72         24 
 53.74         23 
 53.76         28 
 53.78         24 
 53.8          23 
 53.82         27 
 53.84         31 
 53.86         24 
 53.88         19 
 53.9          23 
 53.92         20 
 53.94         30 
 53.96         28 
 53.98         27 
 54            26 
 54.02         28 
 54.04         21 
 54.06         29 
 54.08         31 
 54.1          19 
 54.12         16 
 54.14         22 
 54.16         24 
 54.18         26 
 54.2          17 
 54.22         19 
 54.24         22 
 54.26         20 
 54.28         29 
 54.3          26 
 54.32         33 
 54.34         30 
 54.36         19 
 54.38         34 
 54.4          27 
 54.42         20 
 54.44         29 
 54.46         20 
 54.48         27 
 54.5          15 
 54.52         24 
 54.54         25 
 54.56         26 
 54.58         21 
 54.6          34 
 54.62         24 
 54.64         30 
 54.66         26 
 54.68         12 
 54.7          22 
 54.72         24 
 54.74         28 
 54.76         18 
 54.78         20 
 54.8          25 
 54.82         31 
 54.84         13 
 54.86         26 
 54.88         23 
 54.9          24 
 54.92         36 
 54.94         29 
 54.96         21 
 54.98         31 
 55            22 
 55.02         25 
 55.04         31 
 55.06         29 
 55.08         34 
 55.1          24 
 55.12         25 
 55.14         27 
 55.16         15 
 55.18         26 
 55.2          24 
 55.22         31 
 55.24         30 
 55.26         28 
 55.28         32 
 55.3          28 
 55.32         28 
 55.34         35 
 55.36         27 
 55.38         35 
 55.4          29 
 55.42         36 
 55.44         27 
 55.46         35 
 55.48         22 
 55.5          36 
 55.52         28 
 55.54         35 
 55.56         32 
 55.58         28 
 55.6          34 
 55.62         30 
 55.64         27 
 55.66         45 
 55.68         33 
 55.7          34 
 55.72         37 
 55.74         44 
 55.76         38 
 55.78         51 
 55.8          31 
 55.82         48 
 55.84         42 
 55.86         40 
 55.88         55 
 55.9          47 
 55.92         54 
 55.94         37 
 55.96         47 
 55.98         49 
 56            65 
 56.02         87 
 56.04         115 
 56.06         177 
 56.08         192 
 56.1          234 
 56.12         252 
 56.14         278 
 56.16         216 
 56.18         194 
 56.2          185 
 56.22         200 
 56.24         178 
 56.26         164 
 56.28         179 
 56.3          170 
 56.32         110 
 56.34         97 
 56.36         80 
 56.38         57 
 56.4          58 
 56.42         44 
 56.44         50 
 56.46         44 
 56.48         35 
 56.5          33 
 56.52         35 
 56.54         45 
 56.56         36 
 56.58         40 
 56.6          25 
 56.62         34 
 56.64         37 
 56.66         30 
 56.68         30 
 56.7          36 
 56.72         34 
 56.74         29 
 56.76         34 
 56.78         34 
 56.8          25 
 56.82         28 
 56.84         37 
 56.86         31 
 56.88         43 
 56.9          25 
 56.92         28 
 56.94         29 
 56.96         35 
 56.98         33 
 57            22 
 57.02         32 
 57.04         40 
 57.06         33 
 57.08         23 
 57.1          36 
 57.12         29 
 57.14         34 
 57.16         35 
 57.18         45 
 57.2          32 
 57.22         34 
 57.24         36 
 57.26         39 
 57.28         36 
 57.3          50 
 57.32         40 
 57.34         42 
 57.36         30 
 57.38         42 
 57.4          38 
 57.42         42 
 57.44         46 
 57.46         42 
 57.48         30 
 57.5          59 
 57.52         54 
 57.54         62 
 57.56         43 
 57.58         55 
 57.6          60 
 57.62         45 
 57.64         43 
 57.66         60 
 57.68         55 
 57.7          52 
 57.72         58 
 57.74         48 
 57.76         67 
 57.78         61 
 57.8          57 
 57.82         44 
 57.84         47 
 57.86         60 
 57.88         54 
 57.9          49 
 57.92         55 
 57.94         45 
 57.96         43 
 57.98         38 
 58            30 
 58.02         42 
 58.04         50 
 58.06         43 
 58.08         34 
 58.1          32 
 58.12         35 
 58.14         31 
 58.16         52 
 58.18         35 
 58.2          39 
 58.22         32 
 58.24         26 
 58.26         35 
 58.28         51 
 58.3          54 
 58.32         59 
 58.34         48 
 58.36         44 
 58.38         62 
 58.4          71 
 58.42         81 
 58.44         67 
 58.46         77 
 58.48         87 
 58.5          65 
 58.52         53 
 58.54         59 
 58.56         61 
 58.58         50 
 58.6          45 
 58.62         42 
 58.64         56 
 58.66         51 
 58.68         42 
 58.7          27 
 58.72         33 
 58.74         32 
 58.76         28 
 58.78         31 
 58.8          29 
 58.82         22 
 58.84         27 
 58.86         35 
 58.88         32 
 58.9          31 
 58.92         33 
 58.94         25 
 58.96         35 
 58.98         34 
 59            34 
 59.02         21 
 59.04         30 
 59.06         24 
 59.08         25 
 59.1          25 
 59.12         23 
 59.14         34 
 59.16         23 
 59.18         25 
 59.2          24 
 59.22         33 
 59.24         28 
 59.26         28 
 59.28         29 
 59.3          28 
 59.32         22 
 59.34         29 
 59.36         31 
 59.38         19 
 59.4          25 
 59.42         27 
 59.44         33 
 59.46         22 
 59.48         24 
 59.5          27 
 59.52         35 
 59.54         25 
 59.56         22 
 59.58         24 
 59.6          25 
 59.62         25 
 59.64         37 
 59.66         24 
 59.68         26 
 59.7          18 
 59.72         28 
 59.74         38 
 59.76         25 
 59.78         31 
 59.8          30 
 59.82         33 
 59.84         29 
 59.86         24 
 59.88         39 
 59.9          24 
 59.92         35 
 59.94         34 
 59.96         32 
 59.98         32 
 60            24 
 60.02         30 
 60.04         19 
 60.06         34 
 60.08         29 
 60.1          45 
 60.12         35 
 60.14         39 
 60.16         41 
 60.18         35 
 60.2          39 
 60.22         25 
 60.24         49 
 60.26         44 
 60.28         48 
 60.3          49 
 60.32         49 
 60.34         52 
 60.36         60 
 60.38         59 
 60.4          65 
 60.42         73 
 60.44         93 
 60.46         101 
 60.48         139 
 60.5          152 
 60.52         228 
 60.54         325 
 60.56         385 
 60.58         489 
 60.6          522 
 60.62         571 
 60.64         510 
 60.66         470 
 60.68         380 
 60.7          371 
 60.72         350 
 60.74         354 
 60.76         319 
 60.78         324 
 60.8          301 
 60.82         268 
 60.84         246 
 60.86         171 
 60.88         150 
 60.9          131 
 60.92         118 
 60.94         134 
 60.96         109 
 60.98         83 
 61            71 
 61.02         74 
 61.04         81 
 61.06         61 
 61.08         68 
 61.1          67 
 61.12         61 
 61.14         49 
 61.16         43 
 61.18         42 
 61.2          40 
 61.22         38 
 61.24         35 
 61.26         37 
 61.28         49 
 61.3          43 
 61.32         34 
 61.34         39 
 61.36         30 
 61.38         36 
 61.4          26 
 61.42         41 
 61.44         30 
 61.46         41 
 61.48         39 
 61.5          36 
 61.52         26 
 61.54         32 
 61.56         43 
 61.58         37 
 61.6          24 
 61.62         27 
 61.64         29 
 61.66         37 
 61.68         29 
 61.7          30 
 61.72         29 
 61.74         33 
 61.76         28 
 61.78         20 
 61.8          20 
 61.82         29 
 61.84         21 
 61.86         40 
 61.88         30 
 61.9          37 
 61.92         38 
 61.94         32 
 61.96         28 
 61.98         33 
 62            30 
 62.02         46 
 62.04         39 
 62.06         33 
 62.08         32 
 62.1          33 
 62.12         34 
 62.14         56 
 62.16         56 
 62.18         63 
 62.2          59 
 62.22         67 
 62.24         56 
 62.26         52 
 62.28         53 
 62.3          48 
 62.32         39 
 62.34         40 
 62.36         58 
 62.38         45 
 62.4          50 
 62.42         46 
 62.44         36 
 62.46         36 
 62.48         45 
 62.5          46 
 62.52         31 
 62.54         38 
 62.56         41 
 62.58         41 
 62.6          75 
 62.62         95 
 62.64         100 
 62.66         91 
 62.68         154 
 62.7          169 
 62.72         205 
 62.74         163 
 62.76         137 
 62.78         130 
 62.8          129 
 62.82         119 
 62.84         104 
 62.86         137 
 62.88         129 
 62.9          122 
 62.92         115 
 62.94         127 
 62.96         119 
 62.98         153 
 63            165 
 63.02         201 
 63.04         251 
 63.06         341 
 63.08         428 
 63.1          433 
 63.12         410 
 63.14         355 
 63.16         324 
 63.18         302 
 63.2          232 
 63.22         273 
 63.24         274 
 63.26         309 
 63.28         284 
 63.3          293 
 63.32         238 
 63.34         213 
 63.36         171 
 63.38         150 
 63.4          160 
 63.42         137 
 63.44         145 
 63.46         139 
 63.48         135 
 63.5          141 
 63.52         117 
 63.54         129 
 63.56         115 
 63.58         105 
 63.6          113 
 63.62         92 
 63.64         84 
 63.66         69 
 63.68         84 
 63.7          90 
 63.72         73 
 63.74         81 
 63.76         50 
 63.78         76 
 63.8          63 
 63.82         80 
 63.84         65 
 63.86         68 
 63.88         76 
 63.9          105 
 63.92         109 
 63.94         129 
 63.96         157 
 63.98         144 
 64            123 
 64.02         112 
 64.04         105 
 64.06         117 
 64.08         135 
 64.1          106 
 64.12         101 
 64.14         98 
 64.16         84 
 64.18         72 
 64.2          83 
 64.22         74 
 64.24         54 
 64.26         49 
 64.28         44 
 64.3          43 
 64.32         42 
 64.34         37 
 64.36         41 
 64.38         44 
 64.4          39 
 64.42         47 
 64.44         66 
 64.46         50 
 64.48         46 
 64.5          64 
 64.52         60 
 64.54         61 
 64.56         64 
 64.58         70 
 64.6          69 
 64.62         53 
 64.64         72 
 64.66         86 
 64.68         106 
 64.7          144 
 64.72         192 
 64.74         214 
 64.76         282 
 64.78         322 
 64.8          352 
 64.82         342 
 64.84         343 
 64.86         305 
 64.88         288 
 64.9          265 
 64.92         214 
 64.94         211 
 64.96         234 
 64.98         208 
 65            213 
 65.02         187 
 65.04         162 
 65.06         130 
 65.08         116 
 65.1          94 
 65.12         69 
 65.14         50 
 65.16         62 
 65.18         44 
 65.2          46 
 65.22         39 
 65.24         37 
 65.26         38 
 65.28         54 
 65.3          38 
 65.32         45 
 65.34         27 
 65.36         30 
 65.38         30 
 65.4          27 
 65.42         36 
 65.44         34 
 65.46         27 
 65.48         32 
 65.5          30 
 65.52         29 
 65.54         32 
 65.56         28 
 65.58         34 
 65.6          30 
 65.62         33 
 65.64         17 
 65.66         33 
 65.68         33 
 65.7          28 
 65.72         32 
 65.74         24 
 65.76         31 
 65.78         35 
 65.8          39 
 65.82         24 
 65.84         31 
 65.86         24 
 65.88         24 
 65.9          20 
 65.92         22 
 65.94         26 
 65.96         35 
 65.98         35 
 66            22 
 66.02         28 
 66.04         35 
 66.06         34 
 66.08         34 
 66.1          25 
 66.12         33 
 66.14         28 
 66.16         33 
 66.18         28 
 66.2          33 
 66.22         35 
 66.24         30 
 66.26         30 
 66.28         33 
 66.3          35 
 66.32         44 
 66.34         34 
 66.36         31 
 66.38         40 
 66.4          40 
 66.42         30 
 66.44         49 
 66.46         46 
 66.48         55 
 66.5          57 
 66.52         59 
 66.54         77 
 66.56         79 
 66.58         98 
 66.6          113 
 66.62         130 
 66.64         172 
 66.66         198 
 66.68         264 
 66.7          267 
 66.72         341 
 66.74         325 
 66.76         386 
 66.78         344 
 66.8          353 
 66.82         316 
 66.84         336 
 66.86         322 
 66.88         364 
 66.9          384 
 66.92         366 
 66.94         325 
 66.96         310 
 66.98         248 
 67            220 
 67.02         200 
 67.04         166 
 67.06         137 
 67.08         143 
 67.1          121 
 67.12         125 
 67.14         87 
 67.16         103 
 67.18         56 
 67.2          54 
 67.22         55 
 67.24         56 
 67.26         54 
 67.28         33 
 67.3          30 
 67.32         37 
 67.34         34 
 67.36         33 
 67.38         31 
 67.4          21 
 67.42         35 
 67.44         34 
 67.46         27 
 67.48         20 
 67.5          38 
 67.52         29 
 67.54         29 
 67.56         30 
 67.58         21 
 67.6          37 
 67.62         20 
 67.64         23 
 67.66         23 
 67.68         20 
 67.7          20 
 67.72         33 
 67.74         25 
 67.76         28 
 67.78         16 
 67.8          21 
 67.82         17 
 67.84         24 
 67.86         22 
 67.88         35 
 67.9          26 
 67.92         26 
 67.94         28 
 67.96         24 
 67.98         23 
 68            26 
 68.02         24 
 68.04         24 
 68.06         27 
 68.08         32 
 68.1          30 
 68.12         24 
 68.14         22 
 68.16         29 
 68.18         21 
 68.2          27 
 68.22         21 
 68.24         19 
 68.26         28 
 68.28         26 
 68.3          27 
 68.32         24 
 68.34         31 
 68.36         35 
 68.38         36 
 68.4          25 
 68.42         36 
 68.44         44 
 68.46         42 
 68.48         44 
 68.5          39 
 68.52         45 
 68.54         37 
 68.56         40 
 68.58         36 
 68.6          39 
 68.62         38 
 68.64         35 
 68.66         38 
 68.68         25 
 68.7          27 
 68.72         30 
 68.74         21 
 68.76         31 
 68.78         24 
 68.8          18 
 68.82         34 
 68.84         25 
 68.86         20 
 68.88         24 
 68.9          22 
 68.92         26 
 68.94         22 
 68.96         27 
 68.98         27 
 69            17 
 69.02         18 
 69.04         32 
 69.06         21 
 69.08         24 
 69.1          18 
 69.12         21 
 69.14         26 
 69.16         19 
 69.18         25 
 69.2          20 
 69.22         24 
 69.24         29 
 69.26         35 
 69.28         29 
 69.3          29 
 69.32         34 
 69.34         31 
 69.36         36 
 69.38         31 
 69.4          23 
 69.42         30 
 69.44         33 
 69.46         30 
 69.48         29 
 69.5          29 
 69.52         28 
 69.54         36 
 69.56         39 
 69.58         30 
 69.6          24 
 69.62         28 
 69.64         31 
 69.66         38 
 69.68         35 
 69.7          27 
 69.72         28 
 69.74         29 
 69.76         28 
 69.78         38 
 69.8          28 
 69.82         39 
 69.84         23 
 69.86         33 
 69.88         55 
 69.9          48 
 69.92         38 
 69.94         48 
 69.96         44 
 69.98         45 
 70            31 
 70.02         29 
 70.04         46 
 70.06         49 
 70.08         29 
 70.1          26 
 70.12         28 
 70.14         32 
 70.16         24 
 70.18         37 
 70.2          31 
 70.22         28 
 70.24         24 
 70.26         26 
 70.28         23 
 70.3          23 
 70.32         20 
 70.34         15 
 70.36         21 
 70.38         13 
 70.4          29 
 70.42         23 
 70.44         20 
 70.46         22 
 70.48         20 
 70.5          17 
 70.52         18 
 70.54         18 
 70.56         17 
 70.58         14 
 70.6          23 
 70.62         15 
 70.64         27 
 70.66         31 
 70.68         21 
 70.7          19 
 70.72         16 
 70.74         24 
 70.76         22 
 70.78         34 
 70.8          22 
 70.82         24 
 70.84         25 
 70.86         14 
 70.88         21 
 70.9          24 
 70.92         20 
 70.94         18 
 70.96         28 
 70.98         8 
 71            28 
 71.02         25 
 71.04         17 
 71.06         21 
 71.08         24 
 71.1          29 
 71.12         33 
 71.14         19 
 71.16         41 
 71.18         36 
 71.2          33 
 71.22         42 
 71.24         41 
 71.26         39 
 71.28         39 
 71.3          25 
 71.32         34 
 71.34         47 
 71.36         38 
 71.38         39 
 71.4          38 
 71.42         37 
 71.44         54 
 71.46         41 
 71.48         67 
 71.5          77 
 71.52         74 
 71.54         103 
 71.56         110 
 71.58         119 
 71.6          123 
 71.62         132 
 71.64         150 
 71.66         109 
 71.68         119 
 71.7          94 
 71.72         82 
 71.74         78 
 71.76         94 
 71.78         79 
 71.8          90 
 71.82         92 
 71.84         72 
 71.86         70 
 71.88         53 
 71.9          54 
 71.92         46 
 71.94         31 
 71.96         34 
 71.98         38 
 72            20 
 72.02         30 
 72.04         27 
 72.06         34 
 72.08         19 
 72.1          30 
 72.12         27 
 72.14         26 
 72.16         25 
 72.18         21 
 72.2          24 
 72.22         16 
 72.24         15 
 72.26         29 
 72.28         21 
 72.3          23 
 72.32         19 
 72.34         16 
 72.36         24 
 72.38         14 
 72.4          21 
 72.42         27 
 72.44         18 
 72.46         29 
 72.48         14 
 72.5          24 
 72.52         23 
 72.54         22 
 72.56         17 
 72.58         17 
 72.6          13 
 72.62         14 
 72.64         19 
 72.66         25 
 72.68         18 
 72.7          26 
 72.72         26 
 72.74         15 
 72.76         32 
 72.78         21 
 72.8          23 
 72.82         23 
 72.84         22 
 72.86         24 
 72.88         22 
 72.9          38 
 72.92         28 
 72.94         30 
 72.96         23 
 72.98         40 
 73            34 
 73.02         29 
 73.04         38 
 73.06         36 
 73.08         45 
 73.1          28 
 73.12         54 
 73.14         78 
 73.16         95 
 73.18         115 
 73.2          147 
 73.22         155 
 73.24         176 
 73.26         176 
 73.28         143 
 73.3          136 
 73.32         102 
 73.34         105 
 73.36         97 
 73.38         88 
 73.4          108 
 73.42         95 
 73.44         110 
 73.46         103 
 73.48         93 
 73.5          99 
 73.52         74 
 73.54         61 
 73.56         43 
 73.58         58 
 73.6          50 
 73.62         29 
 73.64         33 
 73.66         29 
 73.68         17 
 73.7          27 
 73.72         22 
 73.74         27 
 73.76         21 
 73.78         24 
 73.8          21 
 73.82         23 
 73.84         15 
 73.86         29 
 73.88         28 
 73.9          23 
 73.92         13 
 73.93999      23 
 73.96         15 
 73.98         21 
 74            24 
 74.02         22 
 74.04         14 
 74.06         12 
 74.08         20 
 74.1          18 
 74.12         24 
 74.14         17 
 74.16         29 
 74.18         21 
 74.2          27 
 74.22         17 
 74.24         21 
 74.26         24 
 74.28         17 
 74.3          16 
 74.32         22 
 74.34         11 
 74.36         21 
 74.38         27 
 74.4          20 
 74.42         28 
 74.43999      22 
 74.46         29 
 74.48         22 
 74.5          19 
 74.52         35 
 74.54         26 
 74.56         24 
 74.58         28 
 74.6          25 
 74.62         44 
 74.64         35 
 74.66         37 
 74.68         49 
 74.7          35 
 74.72         42 
 74.74         50 
 74.76         35 
 74.78         40 
 74.8          31 
 74.82         27 
 74.84         34 
 74.86         40 
 74.88         33 
 74.9          46 
 74.92         37 
 74.93999      31 
 74.96         35 
 74.98         38 
 75            26 
