EC-Lab ASCII FILE
Nb header lines : 3                           
mode	ox/red	error	control changes	Ns changes	counter inc.	Ns	time/s	control/V/mA	Ewe/V	dq/mA.h	<I>/mA	P/W	(Q-Qo)/mA.h	x	Capacity/mA.h
1	0	0	1	1	0	1	99065,01	-0,300000012	4,18198204	0	0	0	0	0	0
1	0	0	1	0	0	1	99075,01	-0,300000012	4,05916452	-0,00082881672501780378	-0,29836812426607238	0,00121112529	-0,00082881672501780378	3,0924266366352774E-005	0,00082881672501780378
1	0	0	1	0	0	1	99085,01	-0,300000012	4,04411268	-0,00083293755950695936	-0,29985159476435488	0,00121263368	-0,0016617542845247632	6,2002286608016845E-005	0,0016617542845247632
1	0	0	1	0	0	1	99095,01	-0,300000012	4,03383017	-0,00083293770813445235	-0,29985164826832218	0,00120955065	-0,0024946919926592154	9,3080312395172493E-005	0,0024946919926592154
1	0	0	1	0	0	1	99105,01	-0,300000012	4,02446365	-0,00083292236502137446	-0,2998461257521248	0,00120671978	-0,0033276143576805901	0,00012415776571015019	0,0033276143576805901
1	0	0	1	0	0	1	99115,01	-0,300000012	4,01664209	-0,00083292032120790746	-0,29984539021546944	0,00120437157	-0,0041605346788884979	0,00015523514276769952	0,0041605346788884979
1	0	0	1	0	0	1	99125,01	-0,300000012	4,00929737	-0,0008329135679056247	-0,29984295886525709	0,00120215956	-0,0049934482467941229	0,00018631226785046074	0,0049934482467941229
1	0	0	1	0	0	1	99135,01	-0,300000012	4,00265884	-0,00083292405182454323	-0,29984673209392454	0,00120018423	-0,0058263722986186662	0,00021738978410233258	0,0058263722986186662
1	0	0	1	0	0	1	99145,01	-0,300000012	3,99748874	-0,00083292608316904973	-0,29984746336349312	0,00119863683	-0,0066592983817877158	0,00024846737614639914	0,0066592983817877158
1	0	0	1	0	0	1	99155,01	-0,300000012	3,99224257	-0,00083292191851635776	-0,29984596469759622	0,00119705778	-0,007492220300304073	0,00027954481280167434	0,007492220300304073
1	0	0	1	0	0	1	99165,01	-0,300000012	3,98598528	-0,00083292337078021632	-0,29984648804329645	0,00119518372	-0,0083251436710842893	0,00031062230364286662	0,0083251436710842893
1	0	0	1	0	0	1	99175,01	-0,300000012	3,9806056	-0,00083292388264503744	-0,29984667231099066	0,00119357137	-0,0091580675537293274	0,00034169981358242368	0,0091580675537293274
1	0	0	1	0	0	1	99185,01	-0,300000012	3,97509241	-0,00083292904373175565	-0,29984852926019245	0,00119192561	-0,0099909965974610829	0,00037277751608906534	0,0099909965974610829
1	0	0	1	0	0	1	99195,01	-0,300000012	3,97026587	-0,00083293088816934157	-0,29984919313289946	0,00119048101	-0,010823927485630422	0,00040385528741415315	0,010823927485630422
1	0	0	1	0	0	1	99205,01	-0,300000012	3,96521044	-0,00083292680551111693	-0,2998477236702752	0,00118895934	-0,011656854291141539	0,00043493290640977344	0,011656854291141539
1	0	0	1	0	0	1	99215,01	-0,300000012	3,96137595	-0,00083292665959397965	-0,29984767199285453	0,00118780939	-0,012489780950735522	0,00046601051996102912	0,012489780950735522
1	0	0	1	0	0	1	99225,01	-0,300000012	3,95662594	-0,0008329215080423488	-0,29984581747091571	0,00118637772	-0,013322702458777869	0,0004970879413009671	0,013322702458777869
1	0	0	1	0	0	1	99235,01	-0,300000012	3,95195198	-0,00083291854635046579	-0,29984475059875309	0,001184972	-0,014155621005128333	0,00052816525213619891	0,014155621005128333
1	0	0	1	0	0	1	99245,01	-0,300000012	3,94796491	-0,00083292304637200294	-0,29984637014165485	0,00118378294	-0,014988544051500336	0,00055924273087328467	0,014988544051500336
1	0	0	1	0	0	1	99255,01	-0,300000012	3,94409227	-0,00083292238933344678	-0,29984613361244966	0,00118262076	-0,015821466440833782	0,00059032018509537843	0,015821466440833782
1	0	0	1	0	0	1	99265,01	-0,300000012	3,93991446	-0,00083292171709736192	-0,29984589267338368	0,0011813672	-0,016654388157931142	0,00062139761423544	0,016654388157931142
1	0	0	1	0	0	1	99275,01	-0,300000012	3,93630886	-0,00083292370094358912	-0,29984660689976192	0,00118028885	-0,017487311858874733	0,00065247511739547174	0,017487311858874733
1	0	0	1	0	0	1	99285,01	-0,300000012	3,9324553	-0,00083292205571300454	-0,29984601426543347	0,0011791311	-0,018320233914587738	0,00068355255916973824	0,018320233914587738
1	0	0	1	0	0	1	99295,01	-0,300000012	3,9289453	-0,00083292125195099238	-0,29984572416285901	0,00117807742	-0,01915315516653873	0,00071462997095456346	0,01915315516653873
1	0	0	1	0	0	1	99305,01	-0,300000012	3,92574024	-0,00083291962735520474	-0,29984513931993498	0,00117711409	-0,019986074793893933	0,00074570732212353549	0,019986074793893933
1	0	0	1	0	0	1	99315,01	-0,300000012	3,92221093	-0,0008329230469713609	-0,29984637111138944	0,00117606076	-0,020818997840865293	0,00077678480088298406	0,020818997840865293
1	0	0	1	0	0	1	99325,01	-0,300000012	3,9190824	-0,00083292338816490432	-0,29984649430166048	0,00117512315	-0,021651921229030198	0,00080786229237282253	0,021651921229030198
1	0	0	1	0	0	1	99335,01	-0,300000012	3,91603017	-0,0008329274903767639	-0,2998479710268592	0,00117421371	-0,022484848719406963	0,00083893993692170086	0,022484848719406963
1	0	0	1	0	0	1	99345,01	-0,300000012	3,91282511	-0,00083292979623874022	-0,29984880004565248	0,00117325597	-0,023317778515645706	0,00087001766750538982	0,023317778515645706
1	0	0	1	0	0	1	99355,01	-0,300000012	3,90956306	-0,00083292960765626688	-0,29984873215381325	0,00117227749	-0,024150708123301971	0,00090109539105281331	0,024150708123301971
1	0	0	1	0	0	1	99365,01	-0,300000012	3,90641522	-0,00083293157360951104	-0,29984944031583174	0,00117133639	-0,024983639696911485	0,00093217318795259558	0,024983639696911485
1	0	0	1	0	0	1	99375,01	-0,300000012	3,90351558	-0,00083293075994319386	-0,29984914808591104	0,00117046584	-0,025816570456854678	0,00096325095449339341	0,025816570456854678
1	0	0	1	0	0	1	99385,01	-0,300000012	3,89998627	-0,0008329248368193705	-0,29984701580347194	0,00116939924	-0,026649495293674048	0,0009943285000344777	0,026649495293674048
1	0	0	1	0	0	1	99395,01	-0,300000012	3,89693403	-0,00083292199879056883	-0,29984599328158726	0,00116848003	-0,027482417292464618	0,0010254059396848917	0,027482417292464618
1	0	0	1	0	0	1	99405,01	-0,300000012	3,89395809	-0,00083291972853905626	-0,29984517574191098	0,00116758456	-0,028315337021003674	0,0010564832946291691	0,028315337021003674
1	0	0	1	0	0	1	99415,01	-0,300000012	3,89088678	-0,00083291210999753728	-0,29984243323287072	0,001166653	-0,02914824913100121	0,0010875603653154194	0,02914824913100121
1	0	0	1	0	0	1	99425,02	-0,300000012	3,88794875	-0,00083291517292956518	-0,2998435368718912	0,00116577628	-0,029981164303930778	0,0011186375502837819	0,029981164303930778
1	0	0	1	0	0	1	99435,02	-0,300000012	3,88487744	-0,00083292161012192563	-0,29984585421578291	0,0011648644	-0,030814085914052704	0,0011497149754324462	0,030814085914052704
1	0	0	1	0	0	1	99445,02	-0,300000012	3,88239741	-0,00083291699694593754	-0,29984419297467782	0,00116411434	-0,031647002910998637	0,0011807922284573117	0,031647002910998637
1	0	0	1	0	0	1	99455,02	-0,300000012	3,87987924	-0,00083291842718919117	-0,29984470726565549	0,00116336124	-0,032479921338187827	0,001211869534846476	0,032479921338187827
1	0	0	1	0	0	1	99465,02	-0,300000012	3,87779999	-0,00083292043987413248	-0,29984543181791334	0,00116274063	-0,033312841778061958	0,0012429469163316219	0,033312841778061958
1	0	0	1	0	0	1	99475,02	-0,300000012	3,87505269	-0,00083291718473864922	-0,29984426089941472	0,00116191234	-0,034145758962800608	0,0012740241763632861	0,034145758962800608
1	0	0	1	0	0	1	99485,02	-0,300000012	3,87255383	-0,00083291734924084608	-0,29984432032846995	0,00116116332	-0,034978676312041453	0,0013051014425327485	0,034978676312041453
1	0	0	1	0	0	1	99495,02	-0,300000012	3,87016916	-0,00083291525446209638	-0,29984356601358822	0,00116044527	-0,035811591566503552	0,0013361786305431992	0,035811591566503552
1	0	0	1	0	0	1	99505,02	-0,300000012	3,86799431	-0,00083291155539949747	-0,29984223347157005	0,00115978811	-0,036644503121903046	0,0013672556805366507	0,036644503121903046
1	0	0	1	0	0	1	99515,02	-0,300000012	3,86614394	-0,00083291561055845696	-0,29984369329819616	0,00115923886	-0,037477418732461498	0,0013983328818335357	0,037477418732461498
1	0	0	1	0	0	1	99525,02	-0,300000012	3,86519003	-0,00083291527101728653	-0,29984357165220646	0,00115895236	-0,03831033400347879	0,0014294100704616827	0,03831033400347879
1	0	0	1	0	0	1	99535,02	-0,300000012	3,86320591	-0,00083292004455957146	-0,29984529062403654	0,00115836412	-0,039143254048038362	0,0014604874371971107	0,039143254048038362
1	0	0	1	0	0	1	99545,02	-0,300000012	3,8612411	-0,00083291645072400576	-0,29984399686879955	0,00115776993	-0,039976170498762362	0,0014915646698417018	0,039976170498762362
1	0	0	1	0	0	1	99555,02	-0,300000012	3,85872293	-0,00083291881474521434	-0,29984484688036621	0,00115701824	-0,040809089313507578	0,0015226419906911027	0,040809089313507578
1	0	0	1	0	0	1	99565,02	-0,300000012	3,85683441	-0,00083291782309942771	-0,29984448980069325	0,0011564506	-0,041642007136607008	0,0015537192745408656	0,041642007136607008
1	0	0	1	0	0	1	99575,02	-0,300000012	3,85408711	-0,00083291043267647411	-0,29984182958025946	0,00115561648	-0,042474917569283482	0,0015847962826440122	0,042474917569283482
1	0	0	1	0	0	1	99585,02	-0,300000012	3,85238934	-0,00083290737538701965	-0,29984072981553728	0,00115510321	-0,043307824944670502	0,0016158731766755782	0,043307824944670502
1	0	0	1	0	0	1	99595,02	-0,300000012	3,8496232	-0,00083290494264331123	-0,29983985404510886	0,00115427049	-0,044140729887313818	0,0016469499799382061	0,044140729887313818
1	0	0	1	0	0	1	99605,02	-0,300000012	3,84578872	-0,00083291627458400192	-0,29984393276502701	0,00115313637	-0,044973646161897818	0,0016780272060107766	0,044973646161897818
1	0	0	1	0	0	1	99615,02	-0,300000012	3,84206867	-0,00083291682675811981	-0,29984413112491168	0,00115202169	-0,045806562988655942	0,0017091044526857062	0,045806562988655942
1	0	0	1	0	0	1	99625,02	-0,300000012	3,83951235	-0,00083291897840632333	-0,2998449057029552	0,00115125824	-0,046639481967062266	0,0017401817796415229	0,046639481967062266
1	0	0	1	0	0	1	99635,02	-0,300000012	3,83678436	-0,00083292329926954368	-0,29984646225807584	0,00115044625	-0,047472405266331814	0,0017712592678145558	0,047472405266331814
1	0	0	1	0	0	1	99645,02	-0,300000012	3,8337512	-0,00083292128754489958	-0,29984573808642144	0,00114953401	-0,04830532655387671	0,0018023366809274374	0,04830532655387671
1	0	0	1	0	0	1	99655,02	-0,300000012	3,83140469	-0,00083292099369400077	-0,29984563193218541	0,00114882994	-0,049138247547570714	0,0018334140830763472	0,049138247547570714
1	0	0	1	0	0	1	99665,02	-0,300000012	3,82886744	-0,00083292105557024474	-0,29984565346718714	0,00114806928	-0,04997116860314096	0,0018644914875339427	0,04997116860314096
1	0	0	1	0	0	1	99675,02	-0,300000012	3,82633018	-0,00083291909312539622	-0,29984494700100525	0,00114730583	-0,050804087696266355	0,0018955688187700822	0,050804087696266355
1	0	0	1	0	0	1	99685,02	-0,300000012	3,82365942	-0,00083291899276276429	-0,29984491162513824	0,00114650477	-0,05163700668902912	0,0019266461462615571	0,05163700668902912
1	0	0	1	0	0	1	99695,02	-0,300000012	3,82196164	-0,00083292363079720077	-0,29984658165454234	0,00114600209	-0,052469930319826317	0,0019577236468043328	0,052469930319826317
1	0	0	1	0	0	1	99705,02	-0,300000012	3,81986308	-0,00083291954359412198	-0,29984511021371744	0,00114536728	-0,053302849863420442	0,0019888009948480662	0,053302849863420442
1	0	0	1	0	0	1	99715,02	-0,300000012	3,81724954	-0,00083291339694956941	-0,29984289641823789	0,00114457519	-0,05413576326037001	0,0020198781135522272	0,05413576326037001
1	0	0	1	0	0	1	99725,02	-0,300000012	3,81543732	-0,00083291676578919091	-0,29984410917653107	0,00114403642	-0,0549686800261592	0,0020509553579523238	0,0549686800261592
1	0	0	1	0	0	1	99735,02	-0,300000012	3,81377769	-0,00083291159497201434	-0,29984224815196851	0,00114353164	-0,055801591621131213	0,0020820324094222794	0,055801591621131213
1	0	0	1	0	0	1	99745,02	-0,300000012	3,81173635	-0,00083290931961933773	-0,29984142972184998	0,0011429165	-0,056634500940750554	0,0021131093759957674	0,056634500940750554
1	0	0	1	0	0	1	99755,02	-0,300000012	3,80967617	-0,00083291025953491533	-0,29984176808477133	0,00114230008	-0,057467411200285466	0,0021441863776387693	0,057467411200285466
1	0	0	1	0	0	1	99765,02	-0,300000012	3,80807352	-0,0008329146521538496	-0,29984334853067776	0,00114182546	-0,058300325852439309	0,0021752635431762893	0,058300325852439309
1	0	0	1	0	0	1	99775,02	-0,300000012	3,80683351	-0,00083292044264740416	-0,29984543281583507	0,00114146166	-0,05913324629508672	0,0022063409247649098	0,05913324629508672
1	0	0	1	0	0	1	99785,02	-0,300000012	3,80498314	-0,00083292044454813005	-0,29984543361178176	0,00114090682	-0,059966166739634842	0,0022374183064244483	0,059966166739634842
1	0	0	1	0	0	1	99795,02	-0,300000012	3,80399108	-0,00083291835003925696	-0,29984468060877824	0,00114060647	-0,060799085089674099	0,0022684956099350454	0,060799085089674099
1	0	0	1	0	0	1	99805,02	-0,300000012	3,8022933	-0,00083291503572298419	-0,29984348747849818	0,00114009285	-0,061632000125397082	0,0022995727897840458	0,061632000125397082
1	0	0	1	0	0	1	99815,02	-0,300000012	3,80153012	-0,00083291826503144371	-0,29984464946203936	0,00113986852	-0,062464918390428531	0,0023306500901228861	0,062464918390428531
1	0	0	1	0	0	1	99825,02	-0,300000012	3,80070996	-0,00083291405809753472	-0,29984313442331059	0,00113961683	-0,063297832448526067	0,0023617272334953667	0,063297832448526067
1	0	0	1	0	0	1	99835,02	-0,300000012	3,79866862	-0,00083291814244952474	-0,29984460476140154	0,0011390103	-0,06413075059097559	0,0023928045292605114	0,06413075059097559
1	0	0	1	0	0	1	99845,02	-0,300000012	3,7969327	-0,00083292021264798118	-0,29984535092566918	0,0011384926	-0,064963670803623578	0,0024238819022675443	0,064963670803623578
1	0	0	1	0	0	1	99855,02	-0,300000012	3,79578805	-0,00083291776269839859	-0,29984446917024762	0,00113814604	-0,065796588566321958	0,0024549591838636634	0,065796588566321958
1	0	0	1	0	0	1	99865,02	-0,300000012	3,7943573	-0,00083291470666229722	-0,29984336879559546	0,00113771285	-0,066629503272984269	0,002486036351434967	0,066629503272984269
1	0	0	1	0	0	1	99875,02	-0,300000012	3,79315543	-0,00083292026759187379	-0,29984536979796237	0,00113736012	-0,067462423540576141	0,0025171137264920307	0,067462423540576141
1	0	0	1	0	0	1	99885,02	-0,300000012	3,79210615	-0,00083292457345128051	-0,29984691987583846	0,00113705138	-0,06829534811402743	0,0025481912622064973	0,06829534811402743
1	0	0	1	0	0	1	99895,02	-0,300000012	3,79071355	-0,00083293256800207834	-0,29984979846286778	0,00113664474	-0,069128280682029517	0,0025792690962084035	0,069128280682029517
1	0	0	1	0	0	1	99905,02	-0,300000012	3,78888226	-0,00083293263657556634	-0,29984982366021472	0,00113609573	-0,069961213318605082	0,0026103469327688781	0,069961213318605082
1	0	0	1	0	0	1	99915,02	-0,300000012	3,7860589	-0,00083292821992271488	-0,29984823369660838	0,0011352431	-0,070794141538527795	0,002641424604538097	0,070794141538527795
1	0	0	1	0	0	1	99925,03	-0,300000012	3,78382683	-0,00083292948470016333	-0,29984868798822842	0,00113457546	-0,071627071023227968	0,0026725023234978627	0,071627071023227968
1	0	0	1	0	0	1	99935,03	-0,300000012	3,78207183	-0,00083292276246514586	-0,29984626793371578	0,00113404007	-0,072459993785693107	0,0027035797916420022	0,072459993785693107
1	0	0	1	0	0	1	99945,03	-0,300000012	3,78022122	-0,00083291839708884557	-0,29984469672600845	0,00113347929	-0,073292912182781952	0,0027346570969080822	0,073292912182781952
1	0	0	1	0	0	1	99955,03	-0,300000012	3,77903843	-0,00083292046368453235	-0,29984544150953139	0,00113312749	-0,074125832646466496	0,0027657344792816262	0,074125832646466496
1	0	0	1	0	0	1	99965,03	-0,300000012	3,77713084	-0,00083292668259806106	-0,29984768027416019	0,00113256392	-0,07495875932906455	0,0027968120936911952	0,07495875932906455
1	0	0	1	0	0	1	99975,03	-0,300000012	3,77499413	-0,00083292324225273395	-0,29984644106223418	0,00113191851	-0,075791682571317286	0,0028278895797368541	0,075791682571317286
1	0	0	1	0	0	1	99985,03	-0,300000012	3,76959538	-0,00083291799030701325	-0,29984454999423424	0,00113029266	-0,076624600561624307	0,0028589668698253571	0,076624600561624307
1	0	0	1	0	0	1	99995,03	-0,300000012	3,76755428	-0,00083293818814555802	-0,29985182107239539	0,00112970802	-0,077457538749769869	0,0028900449135223725	0,077457538749769869
1	0	0	1	0	0	1	100005,03	-0,300000012	3,76574183	-0,00083292668883999194	-0,29984768249328595	0,00112914899	-0,078290465438609856	0,0029211225281648371	0,078290465438609856
1	0	0	1	0	0	1	100015,03	-0,300000012	3,76379609	-0,0008329261405650112	-0,29984748514611834	0,00112856482	-0,079123391579174874	0,0029522001223504237	0,079123391579174874
1	0	0	1	0	0	1	100025,03	-0,300000012	3,76204085	-0,00083292109565933542	-0,29984566862501811	0,00112803164	-0,079956312674834214	0,0029832775283037978	0,079956312674834214
1	0	0	1	0	0	1	100035,03	-0,300000012	3,75904584	-0,00083292530395752858	-0,29984718285638048	0,00112713932	-0,080789237978791744	0,0030143550912744346	0,080789237978791744
1	0	0	1	0	0	1	100045,03	-0,300000012	3,7567184	-0,00083292527220480973	-0,29984717142562758	0,00112644141	-0,081622163250996557	0,0030454326530603347	0,081622163250996557
1	0	0	1	0	0	1	100055,03	-0,300000012	3,75500154	-0,00083291024178432102	-0,29984176134911936	0,00112590624	-0,082455073492780877	0,0030765096540410381	0,082455073492780877
1	0	0	1	0	0	1	100065,03	-0,300000012	3,75366616	-0,00083291436537437965	-0,29984324616125997	0,00112551148	-0,083287987858155251	0,0031075868088784307	0,083287987858155251
1	0	0	1	0	0	1	100075,03	-0,300000012	3,75162482	-0,00083291417606009382	-0,29984317793965254	0,00112489914	-0,084120902034215334	0,0031386639566522528	0,084120902034215334
1	0	0	1	0	0	1	100085,03	-0,300000012	3,7507093	-0,00083291954926980864	-0,29984511120974797	0,00112463185	-0,084953821583485146	0,0031697413049077536	0,084953821583485146
1	0	0	1	0	0	1	100095,03	-0,300000012	3,74868703	-0,0008329213313874272	-0,2998457527594103	0,00112402788	-0,085786742914872576	0,0032008187196564595	0,085786742914872576
1	0	0	1	0	0	1	100105,03	-0,300000012	3,74582553	-0,00083291889614860211	-0,29984487653755571	0,00112316664	-0,086619661811021184	0,0032318960435431296	0,086619661811021184
1	0	0	1	0	0	1	100115,03	-0,300000012	3,7433455	-0,00083292377639313536	-0,29984663406106182	0,0011224295	-0,08745258558741431	0,0032629735495182854	0,08745258558741431
1	0	0	1	0	0	1	100125,03	-0,300000012	3,74183846	-0,00083291479675306227	-0,2998434014545168	0,00112196559	-0,088285500384167373	0,0032940507204509965	0,088285500384167373
1	0	0	1	0	0	1	100135,03	-0,300000012	3,74029326	-0,00083291499133904781	-0,29984347063842637	0,00112150249	-0,089118415375506406	0,0033251278986439725	0,089118415375506406
1	0	0	1	0	0	1	100145,03	-0,300000012	3,73895788	-0,00083291631550424627	-0,29984394707366438	0,00112110388	-0,089951331691010662	0,0033562051262433325	0,089951331691010662
1	0	0	1	0	0	1	100155,03	-0,300000012	3,73724079	-0,00083291834798289677	-0,29984467887717766	0,00112059177	-0,090784250038993562	0,0033872824296772038	0,090784250038993562
1	0	0	1	0	0	1	100165,03	-0,300000012	3,73582911	-0,00083290969389180339	-0,29984156445727501	0,00112015684	-0,09161715973288535	0,0034183594102153005	0,09161715973288535
1	0	0	1	0	0	1	100175,03	-0,300000012	3,73382616	-0,00083291458278232154	-0,29984332442308179	0,00111956289	-0,092450074315667674	0,0034494365731644755	0,092450074315667674
1	0	0	1	0	0	1	100185,03	-0,300000012	3,73165131	-0,00083290878018074573	-0,29984123498326976	0,00111890293	-0,093282983095848422	0,003480513519610784	0,093282983095848422
1	0	0	1	0	0	1	100195,03	-0,300000012	3,7294383	-0,0008329246731334263	-0,29984695576070157	0,00111826067	-0,09411590776898185	0,0035115910590445261	0,09411590776898185
1	0	0	1	0	0	1	100205,03	-0,300000012	3,72684383	-0,00083293403289384307	-0,2998503252078535	0,00111749535	-0,094948841801875699	0,0035426689477035136	0,094948841801875699
1	0	0	1	0	0	1	100215,03	-0,300000012	3,72478366	-0,00083292890310618611	-0,29984847945628525	0,00111687067	-0,095781770704981875	0,0035737466449632256	0,095781770704981875
1	0	0	1	0	0	1	100225,03	-0,300000012	3,72089195	-0,00083292477219137882	-0,29984699253785466	0,00111569825	-0,096614695477173261	0,0036048241880929523	0,096614695477173261
1	0	0	1	0	0	1	100235,03	-0,300000012	3,71846914	-0,00083291961451868211	-0,2998451355894144	0,00111496483	-0,097447615091691942	0,0036359015387829773	0,097447615091691942
1	0	0	1	0	0	1	100245,03	-0,300000012	3,7157793	-0,00083292137239211149	-0,29984576751775053	0,00111416075	-0,09828053646408407	0,0036669789550616224	0,09828053646408407
1	0	0	1	0	0	1	100255,03	-0,300000012	3,71329927	-0,00083292311431633114	-0,29984639459763891	0,00111341942	-0,099113459578400397	0,0036980564363338029	0,099113459578400397
1	0	0	1	0	0	1	100265,03	-0,300000012	3,71043777	-0,00083291661643319654	-0,29984405602115917	0,00111255271	-0,0999463761948336	0,0037291336751612262	0,0999463761948336
1	0	0	1	0	0	1	100275,03	-0,300000012	3,70778608	-0,00083291741541524736	-0,29984434415078368	0,00111175864	-0,10077929361024885	0,0037602109437997446	0,10077929361024885
1	0	0	1	0	0	1	100285,03	-0,300000012	3,70532513	-0,00083291738727357645	-0,29984433401998234	0,0011110208	-0,10161221099752242	0,0037912882113882598	0,10161221099752242
1	0	0	1	0	0	1	100295,03	-0,300000012	3,70292139	-0,00083291635134650611	-0,29984396004817965	0,00111029856	-0,10244512734886893	0,0038223654403249427	0,10244512734886893
1	0	0	1	0	0	1	100305,03	-0,300000012	3,70025063	-0,00083291954371333133	-0,29984510920596512	0,00110950205	-0,10327804689258226	0,0038534427883731238	0,10327804689258226
1	0	0	1	0	0	1	100315,03	-0,300000012	3,69796133	-0,00083291950642565875	-0,2998450960758777	0,00110881554	-0,1041109663990079	0,0038845201350300518	0,1041109663990079
1	0	0	1	0	0	1	100325,03	-0,300000012	3,69553876	-0,0008329131274637248	-0,29984280051874016	0,00110808073	-0,10494387952647163	0,0039155972436793338	0,10494387952647163
1	0	0	1	0	0	1	100335,03	-0,300000012	3,69326854	-0,00083291402612957696	-0,29984312403205382	0,00110740121	-0,1057767935526012	0,0039466743858590458	0,1057767935526012
1	0	0	1	0	0	1	100345,03	-0,300000012	3,69061685	-0,00083291274855699802	-0,29984266338897779	0,00110660435	-0,10660970630115821	0,0039777514803708083	0,10660970630115821
1	0	0	1	0	0	1	100355,03	-0,300000012	3,68790793	-0,00083292486678560576	-0,29984702547759891	0,00110580819	-0,10744263116794381	0,0040088290270299731	0,10744263116794381
1	0	0	1	0	0	1	100365,03	-0,300000012	3,68485546	-0,0008329211768491401	-0,29984569712672646	0,00110488804	-0,10827555234479296	0,004039906436012647	0,10827555234479296
1	0	0	1	0	0	1	100375,03	-0,300000012	3,6822803	-0,00083292152279946547	-0,29984582275544794	0,00110411632	-0,10910847386759242	0,004070983857903193	0,10910847386759242
1	0	0	1	0	0	1	100385,03	-0,300000012	3,67945671	-0,0008329208303325705	-0,29984557350021677	0,00110326882	-0,10994139469792499	0,0041020612539568685	0,10994139469792499
1	0	0	1	0	0	1	100395,03	-0,300000012	3,67625189	-0,00083291941095557478	-0,29984506212968768	0,00110230595	-0,11077431410888058	0,0041331385970516794	0,11077431410888058
1	0	0	1	0	0	1	100405,03	-0,300000012	3,67182612	-0,00083292185199426278	-0,29984594017416685	0,00110098219	-0,11160723596087485	0,0041642160312249261	0,11160723596087485
1	0	0	1	0	0	1	100415,03	-0,300000012	3,66938424	-0,00083292825538085568	-0,29984824534777779	0,00110025844	-0,1124401642162557	0,0041952937043171354	0,1124401642162557
1	0	0	1	0	0	1	100425,03	-0,300000012	3,6662364	-0,00083292947931918835	-0,29984868672480717	0,00109931617	-0,11327309369557488	0,0042263714230761299	0,11327309369557488
1	0	0	1	0	0	1	100435,04	-0,300000012	3,66381359	-0,0008329300902403063	-0,29984890700112646	0,00109859055	-0,1141060237858152	0,0042574491646294125	0,1141060237858152
1	0	0	1	0	0	1	100445,04	-0,300000012	3,66099024	-0,00083293431629902784	-0,29985042826842637	0,00109774945	-0,11493895810211421	0,0042885270638626285	0,11493895810211421
1	0	0	1	0	0	1	100455,04	-0,300000012	3,65862465	-0,00083293901809056602	-0,29985211984669293	0,0010970463	-0,11577189712020477	0,004319605138526007	0,11577189712020477
1	0	0	1	0	0	1	100465,04	-0,300000012	3,65791893	-0,00083293541027108826	-0,29985082105735181	0,00109683	-0,11660483253047586	0,0043506830785767917	0,11660483253047586
1	0	0	1	0	0	1	100475,04	-0,300000012	3,6554389	-0,00083292957383228672	-0,29984872044167482	0,00109607866	-0,11743776210430814	0,0043817608008621971	0,11743776210430814
1	0	0	1	0	0	1	100485,04	-0,300000012	3,65255833	-0,00083292535383668211	-0,29984720192951661	0,00109520939	-0,11827068745814482	0,0044128383656938925	0,11827068745814482
1	0	0	1	0	0	1	100495,04	-0,300000012	3,64963961	-0,0008329256178769801	-0,29984729698214554	0,00109433453	-0,11910361307602181	0,0044439159403772864	0,11910361307602181
1	0	0	1	0	0	1	100505,04	-0,300000012	3,64683509	-0,00083292139330671898	-0,29984577528727526	0,00109348807	-0,11993653446932854	0,0044749933574362835	0,11993653446932854
1	0	0	1	0	0	1	100515,04	-0,300000012	3,64431715	-0,00083291819095942707	-0,29984462222767552	0,00109272893	-0,12076945266028797	0,0045060706550113978	0,12076945266028797
1	0	0	1	0	0	1	100525,04	-0,300000012	3,642066	-0,00083291720399260518	-0,29984426706626541	0,00109205255	-0,12160236986428058	0,0045371479157614528	0,12160236986428058
1	0	0	1	0	0	1	100535,04	-0,300000012	3,63909006	-0,00083291444043483994	-0,29984327317900109	0,00109115662	-0,12243528430471542	0,0045682250733994528	0,12243528430471542
1	0	0	1	0	0	1	100545,04	-0,300000012	3,63599944	-0,00083291172784401318	-0,2998422966656009	0,00109022646	-0,12326819603255941	0,0045993021298270413	0,12326819603255941
1	0	0	1	0	0	1	100555,04	-0,300000012	3,63378668	-0,00083291446516911194	-0,29984328152467245	0,0010895665	-0,12410111049772854	0,0046303792883879098	0,12410111049772854
1	0	0	1	0	0	1	100565,04	-0,300000012	3,63039088	-0,00083291609330640896	-0,299843867084024	0,00108855043	-0,12493402659103496	0,0046614565076967699	0,12493402659103496
1	0	0	1	0	0	1	100575,04	-0,300000012	3,62686157	-0,00083291247949666445	-0,29984256613822957	0,00108748744	-0,1257669390705316	0,0046925335921695283	0,1257669390705316
1	0	0	1	0	0	1	100585,04	-0,300000012	3,62384748	-0,0008329153918143776	-0,29984361548735686	0,00108658755	-0,12659985446234598	0,0047236107853047776	0,12659985446234598
1	0	0	1	0	0	1	100595,04	-0,300000012	3,62069988	-0,0008329125217232439	-0,29984258245647635	0,00108564005	-0,12743276698406922	0,0047546878713530675	0,12743276698406922
1	0	0	1	0	0	1	100605,04	-0,300000012	3,61718965	-0,00083291309261984307	-0,29984278772387027	0,00108458824	-0,12826568007668907	0,0047857649787022771	0,12826568007668907
1	0	0	1	0	0	1	100615,04	-0,300000012	3,61369848	-0,00083290673977302182	-0,29984049987855846	0,00108353316	-0,12909858681646208	0,0048168418490182304	0,12909858681646208
1	0	0	1	0	0	1	100625,04	-0,300000012	3,60904384	-0,00083291920875012877	-0,29984498862203194	0,00108215376	-0,12993150602521219	0,0048479191845684838	0,12993150602521219
1	0	0	1	0	0	1	100635,04	-0,300000012	3,60560989	-0,00083291436442567245	-0,29984324531752691	0,00108111778	-0,13076442038963787	0,0048789963393704787	0,13076442038963787
1	0	0	1	0	0	1	100645,04	-0,300000012	3,60183263	-0,00083292180827425587	-0,29984592554921216	0,00107999484	-0,13159734219791214	0,004910073771912473	0,13159734219791214
1	0	0	1	0	0	1	100655,04	-0,300000012	3,59769297	-0,00083291901095045939	-0,29984491853254566	0,00107875001	-0,13243026120886259	0,0049411511000825555	0,13243026120886259
1	0	0	1	0	0	1	100665,04	-0,300000012	3,59361053	-0,00083291863490309965	-0,29984478211056	0,00107752532	-0,13326317984376568	0,0049722284142218048	0,13326317984376568
1	0	0	1	0	0	1	100675,04	-0,300000012	3,59015751	-0,00083291538143157952	-0,29984361081415066	0,00107648585	-0,13409609522519725	0,005003305606969657	0,13409609522519725
1	0	0	1	0	0	1	100685,04	-0,300000012	3,58657122	-0,00083291676037675802	-0,29984410753351917	0,00107541226	-0,134929011985574	0,0050343828511678086	0,134929011985574
1	0	0	1	0	0	1	100695,04	-0,300000012	3,58325171	-0,00083292110162973402	-0,2998456711617751	0,0010744225	-0,13576193308720374	0,0050654602573439456	0,13576193308720374
1	0	0	1	0	0	1	100705,04	-0,300000012	3,57916927	-0,00083291512355208397	-0,29984351909634925	0,00107319071	-0,13659484821075582	0,005096537440469968	0,13659484821075582
1	0	0	1	0	0	1	100715,04	-0,300000012	3,57634592	-0,00083290663476950579	-0,29984046246897958	0,00107233319	-0,13742775484552533	0,0051276143068680986	0,13742775484552533
1	0	0	1	0	0	1	100725,04	-0,300000012	3,57209182	-0,00083290656210316557	-0,29984043591867443	0,00107105752	-0,1382606614076285	0,005158691170554951	0,1382606614076285
1	0	0	1	0	0	1	100735,04	-0,300000012	3,5675323	-0,00083290489517980147	-0,29983983584161466	0,00106968835	-0,1390935663028083	0,0051897679720466509	0,1390935663028083
1	0	0	1	0	0	1	100745,04	-0,300000012	3,56306839	-0,00083291335378918387	-0,29984288198382362	0,00106836064	-0,13992647965659749	0,005220845089140441	0,13992647965659749
1	0	0	1	0	0	1	100755,04	-0,300000012	3,55881405	-0,00083291920040713421	-0,29984498673865504	0,00106709253	-0,14075939885700461	0,0052519224243794061	0,14075939885700461
1	0	0	1	0	0	1	100765,04	-0,300000012	3,55461717	-0,00083293340484797952	-0,29985009983139379	0,00106585235	-0,14159233226185258	0,0052830002896051565	0,14159233226185258
1	0	0	1	0	0	1	100775,04	-0,300000012	3,55015326	-0,00083292875312931008	-0,29984842453367974	0,00106450787	-0,1424252610149819	0,005314077981269031	0,1424252610149819
1	0	0	1	0	0	1	100785,04	-0,300000012	3,54607081	-0,00083291831833289741	-0,2998446680812185	0,00106327038	-0,1432581793333148	0,0053451552835966208	0,1432581793333148
1	0	0	1	0	0	1	100795,04	-0,300000012	3,54181647	-0,0008329132911645705	-0,29984285913223898	0,00106198841	-0,14409109262447939	0,005376232398353801	0,14409109262447939
1	0	0	1	0	0	1	100805,04	-0,300000012	3,53735256	-0,00083290247141652634	-0,29983896442104666	0,00106063613	-0,1449239950958959	0,0054073091094116339	0,1449239950958959
1	0	0	1	0	0	1	100815,04	-0,300000012	3,53275514	-0,00083290637283855014	-0,29984036882144768	0,00105926255	-0,14575690146873446	0,0054383859660367699	0,14575690146873446
1	0	0	1	0	0	1	100825,04	-0,300000012	3,52821469	-0,00083290944420297933	-0,29984147345759078	0,00105790514	-0,14658981091293744	0,0054694629372586406	0,14658981091293744
1	0	0	1	0	0	1	100835,04	-0,300000012	3,52386522	-0,000832914209054576	-0,29984318877026182	0,001056607	-0,147422725121992	0,0055005400862635309	0,147422725121992
1	0	0	1	0	0	1	100845,04	-0,300000012	3,51932478	-0,00083290811242659891	-0,2998409945022832	0,00105523784	-0,14825563323441859	0,0055316170077950342	0,14825563323441859
1	0	0	1	0	0	1	100855,04	-0,300000012	3,51451755	-0,00083291061632335194	-0,29984189652956077	0,00105379964	-0,14908854385074195	0,0055626940227502918	0,14908854385074195
1	0	0	1	0	0	1	100865,04	-0,300000012	3,51009154	-0,00083290819897088742	-0,29984102629987072	0,00105246948	-0,14992145204971283	0,00559377094751088	0,14992145204971283
1	0	0	1	0	0	1	100875,04	-0,300000012	3,50530338	-0,0008329015922562944	-0,2998386470360464	0,00105102547	-0,15075435364196912	0,0056248476257660634	0,15075435364196912
1	0	0	1	0	0	1	100885,04	-0,300000012	3,50053406	-0,000832895761511392	-0,29983654778597664	0,00104958809	-0,15158724940348051	0,0056559240864683149	0,15158724940348051
1	0	0	1	0	0	1	100895,04	-0,300000012	3,49563122	-0,00083289734165204902	-0,29983711677895162	0,00104811997	-0,15242014674513254	0,0056870006061277376	0,15242014674513254
1	0	0	1	0	0	1	100905,04	-0,300000012	3,49030876	-0,0008329030232181152	-0,29983916306569312	0,00104653125	-0,15325304976835066	0,0057180773377740314	0,15325304976835066
1	0	0	1	0	0	1	100915,04	-0,300000012	3,48536777	-0,00083289992110596749	-0,29983804632738848	0,00104504591	-0,15408594968945664	0,0057491539536763488	0,15408594968945664
1	0	0	1	0	0	1	100925,04	-0,300000012	3,4799118	-0,00083290138436522752	-0,29983857251786854	0,00104341179	-0,15491885107382186	0,0057802306241748365	0,15491885107382186
1	0	0	1	0	0	1	100935,05	-0,300000012	3,47506642	-0,00083290609115527731	-0,29984026638078566	0,00104196486	-0,15575175716497712	0,0058113074702899904	0,15575175716497712
1	0	0	1	0	0	1	100945,05	-0,300000012	3,46964836	-0,00083290433152019981	-0,29983963292467821	0,00104033807	-0,15658466149649734	0,005842384250750793	0,15658466149649734
1	0	0	1	0	0	1	100955,05	-0,300000012	3,46449757	-0,0008329137421747049	-0,29984302164277286	0,00103880547	-0,15741757523867203	0,005873461382335767	0,15741757523867203
1	0	0	1	0	0	1	100965,05	-0,300000012	3,45866013	-0,00083290877441730765	-0,2998412334529977	0,00103704887	-0,15825048401308934	0,0059045383285670336	0,15825048401308934
1	0	0	1	0	0	1	100975,05	-0,300000012	3,45341396	-0,00083292203887303667	-0,29984600831137338	0,0010354924	-0,15908340605196237	0,0059356157697129779	0,15908340605196237
1	0	0	1	0	0	1	100985,05	-0,300000012	3,44795799	-0,00083291486549211878	-0,29984342507961587	0,00103384757	-0,15991632091745446	0,0059666929432104358	0,15991632091745446
1	0	0	1	0	0	1	100995,05	-0,300000012	3,44185328	-0,00083291454409559565	-0,29984330937915443	0,00103201671	-0,16074923546155008	0,0059977701047161574	0,16074923546155008
1	0	0	1	0	0	1	101005,05	-0,300000012	3,43609214	-0,00083291635832190502	-0,29984396311602029	0,00103029143	-0,16158215181987197	0,0060288473339131021	0,16158215181987197
1	0	0	1	0	0	1	101015,05	-0,300000012	3,4300828	-0,00083291599298516915	-0,29984383208607475	0,00102848921	-0,16241506781285715	0,0060599245494788416	0,16241506781285715
1	0	0	1	0	0	1	101025,05	-0,300000012	3,42418814	-0,00083290224231945139	-0,29983888194467533	0,00102670479	-0,16324797005517658	0,0060910012519887539	0,16324797005517658
1	0	0	1	0	0	1	101035,05	-0,300000012	3,41829324	-0,0008329033997787369	-0,29983929756066586	0,00102493865	-0,1640808734549553	0,0061220779976850304	0,1640808734549553
1	0	0	1	0	0	1	101045,05	-0,300000012	3,41211247	-0,00083290683984094195	-0,29984053590229773	0,00102308963	-0,16491378029479626	0,0061531548717346522	0,16491378029479626
1	0	0	1	0	0	1	101055,05	-0,300000012	3,40566444	-0,00083290167117284403	-0,29983867554055923	0,00102114992	-0,16574668196596909	0,0061842315529343168	0,16574668196596909
1	0	0	1	0	0	1	101065,05	-0,300000012	3,39933085	-0,00083290410719977485	-0,29983955328788858	0,00101925386	-0,16657958607316886	0,0062153083250254234	0,16657958607316886
1	0	0	1	0	0	1	101075,05	-0,300000012	3,393188	-0,0008329015966653824	-0,2998386495133673	0,00101740891	-0,16741248766983424	0,0062463850034451162	0,16741248766983424
1	0	0	1	0	0	1	101085,05	-0,300000012	3,38653016	-0,00083291417696409754	-0,29984317759315373	0,00101542799	-0,16824540184679834	0,0062774621512526682	0,16824540184679834
1	0	0	1	0	0	1	101095,05	-0,300000012	3,38033009	-0,00083290377675990259	-0,29983943321491853	0,00101355626	-0,16907830562355824	0,0063085389110146176	0,16907830562355824
1	0	0	1	0	0	1	101105,05	-0,300000012	3,37386298	-0,00083291651856899264	-0,29984402017552826	0,00101163262	-0,16991122214212723	0,0063396161461905958	0,16991122214212723
1	0	0	1	0	0	1	101115,05	-0,300000012	3,367167	-0,00083291966036458816	-0,29984515231657574	0,00100962876	-0,17074414180249181	0,0063706934985911923	0,17074414180249181
1	0	0	1	0	0	1	101125,05	-0,300000012	3,36104345	-0,00083290624006589248	-0,2998403211045177	0,00100777636	-0,17157704804255773	0,0064017703502624013	0,17157704804255773
1	0	0	1	0	0	1	101135,05	-0,300000012	3,35444283	-0,00083291764465967821	-0,2998444262582784	0,00100581103	-0,17240996568721741	0,0064328476274543373	0,17240996568721741
1	0	0	1	0	0	1	101145,05	-0,300000012	3,347785	-0,00083291799082524262	-0,29984455018079309	0,00100381509	-0,17324288367804262	0,006463924917562176	0,17324288367804262
1	0	0	1	0	0	1	101155,05	-0,300000012	3,3412416	-0,0008329233309262327	-0,2998464725791529	0,00100185955	-0,1740758070089689	0,0064950024069163635	0,1740758070089689
1	0	0	1	0	0	1	101165,05	-0,300000012	3,33445001	-0,00083292262508637376	-0,29984621927768282	0,000999822281	-0,17490872963405526	0,0065260798699347162	0,17490872963405526
1	0	0	1	0	0	1	101175,05	-0,300000012	3,32830739	-0,0008329170697778464	-0,2998442197272688	0,000997973722	-0,17574164670383312	0,0065571571256770381	0,17574164670383312
1	0	0	1	0	0	1	101185,05	-0,300000012	3,32174492	-0,00083291338329679437	-0,29984289250861779	0,000996001647	-0,17657456008712992	0,0065882342438717965	0,17657456008712992
1	0	0	1	0	0	1	101195,05	-0,300000012	3,31472445	-0,00083291700904733594	-0,29984419674773248	0,000993900932	-0,17740747709617725	0,0066193114973481805	0,17740747709617725
1	0	0	1	0	0	1	101205,05	-0,300000012	3,30789495	-0,00083291962757872205	-0,29984513940039962	0,000991856214	-0,17824039672375597	0,0066503888485254925	0,17824039672375597
1	0	0	1	0	0	1	101215,05	-0,300000012	3,30144691	-0,00083291932041943066	-0,29984502929996013	0,000989922439	-0,17907331604417539	0,0066814661882422784	0,17907331604417539
1	0	0	1	0	0	1	101225,05	-0,300000012	3,29429317	-0,00083293018290069363	-0,29984894036518797	0,000987790292	-0,1799062462270761	0,0067125439332528448	0,1799062462270761
1	0	0	1	0	0	1	101235,05	-0,300000012	3,2879405	-0,00083291999669704166	-0,29984527339037574	0,000985873397	-0,18073916622377315	0,0067436212982024576	0,18073916622377315
1	0	0	1	0	0	1	101245,05	-0,300000012	3,28130174	-0,00083291976939804019	-0,29984519066378042	0,000983882579	-0,18157208599317117	0,0067746986546712397	0,18157208599317117
1	0	0	1	0	0	1	101255,05	-0,300000012	3,27412868	-0,00083291930167045862	-0,29984502207574374	0,000981731224	-0,18240500529484163	0,0068057759936884749	0,18240500529484163
1	0	0	1	0	0	1	101265,05	-0,300000012	3,2676425	-0,00083291743844085274	-0,29984435147992864	0,000979784178	-0,1832379227332825	0,0068368532631861094	0,1832379227332825
1	0	0	1	0	0	1	101275,05	-0,300000012	3,26142359	-0,00083291810772485197	-0,29984459338080685	0,000977920252	-0,18407084084100733	0,0068679305576556301	0,18407084084100733
1	0	0	1	0	0	1	101285,05	-0,300000012	3,25268626	-0,00083291743639277082	-0,29984435170603347	0,000975299627	-0,1849037582774001	0,0068990078270768474	0,1849037582774001
1	0	0	1	0	0	1	101295,05	-0,300000012	3,24642897	-0,00083292069408131968	-0,29984552386431629	0,000973427203	-0,18573667897148141	0,0069300852180468045	0,18573667897148141
1	0	0	1	0	0	1	101305,05	-0,300000012	3,2398665	-0,00083291948080228442	-0,29984508656192646	0,000971458037	-0,18656959845228368	0,0069611625637476902	0,18656959845228368
1	0	0	1	0	0	1	101315,05	-0,300000012	3,23315144	-0,00083291419113841331	-0,29984318232057075	0,000969438406	-0,18740251264342208	0,0069922397120841037	0,18740251264342208
1	0	0	1	0	0	1	101325,05	-0,300000012	3,22616935	-0,00083291345812380314	-0,29984291938646906	0,000967344036	-0,18823542610154589	0,0070233168330707584	0,18823542610154589
1	0	0	1	0	0	1	101335,05	-0,300000012	3,21893907	-0,00083291763062609574	-0,29984442162515808	0,000965180923	-0,189068343732172	0,0070543941097390822	0,189068343732172
1	0	0	1	0	0	1	101345,05	-0,300000012	3,21151829	-0,00083293167705999488	-0,2998494779761465	0,000962972059	-0,189901275409232	0,0070854719104987418	0,189901275409232
1	0	0	1	0	0	1	101355,05	-0,300000012	3,20463133	-0,00083292500334978099	-0,29984707463623968	0,000960899342	-0,19073420041258176	0,0071165494622532992	0,19073420041258176
1	0	0	1	0	0	1	101365,05	-0,300000012	3,19732499	-0,00083292210494147405	-0,29984603122987238	0,000958705205	-0,19156712251752326	0,0071476269058643469	0,19156712251752326
1	0	0	1	0	0	1	101375,05	-0,300000012	3,18980861	-0,00083291933191650432	-0,29984503360637299	0,000956448261	-0,19240004184943978	0,0071787042460101043	0,19240004184943978
1	0	0	1	0	0	1	101385,05	-0,300000012	3,18236852	-0,00083291822078327334	-0,29984463407754362	0,000954216113	-0,19323296007022304	0,0072097815446979853	0,19323296007022304
1	0	0	1	0	0	1	101395,05	-0,300000012	3,17494774	-0,00083291926259464691	-0,29984500912222662	0,000951992231	-0,1940658793328177	0,0072408588822572506	0,1940658793328177
1	0	0	1	0	0	1	101405,05	-0,300000012	3,16758394	-0,0008329100202653143	-0,29984168088829062	0,000949773705	-0,19489878935308301	0,0072719358749727821	0,19489878935308301
1	0	0	1	0	0	1	101415,05	-0,300000012	3,1595335	-0,00083291187418997286	-0,2998423482325639	0,000947361928	-0,19573170122727296	0,0073030129368607347	0,19573170122727296
1	0	0	1	0	0	1	101425,05	-0,300000012	3,15184546	-0,00083290698190530138	-0,29984058737998394	0,000945051201	-0,19656460820917827	0,0073340898162109683	0,19656460820917827
1	0	0	1	0	0	1	101435,05	-0,300000012	3,14438629	-0,00083290496118863424	-0,29983986071823898	0,000942812359	-0,19739751317036688	0,0073651666201655475	0,19739751317036688
1	0	0	1	0	0	1	101445,06	-0,300000012	3,13687015	-0,00083291160405675571	-0,29984225210350515	0,000940566184	-0,19823042477442365	0,0073962436719744666	0,19823042477442365
1	0	0	1	0	0	1	101455,06	-0,300000012	3,1286478	-0,00083290358275671795	-0,29983936373816653	0,000938091776	-0,19906332835718038	0,0074273204244978982	0,19906332835718038
1	0	0	1	0	0	1	101465,06	-0,300000012	3,12052107	-0,00083291231076419341	-0,29984250539574067	0,000935664866	-0,19989624066794458	0,0074583975026750221	0,19989624066794458
1	0	0	1	0	0	1	101475,06	-0,300000012	3,11186028	-0,00083291113165848781	-0,29984208094178381	0,000933066651	-0,20072915179960304	0,0074894745368581274	0,20072915179960304
1	0	0	1	0	0	1	101485,06	-0,300000012	3,10348535	-0,00083292182134257434	-0,2998459302532775	0,000930567447	-0,2015620736209456	0,0075205519698877158	0,2015620736209456
1	0	0	1	0	0	1	101495,06	-0,300000012	3,09636974	-0,00083292160635524314	-0,29984585285936768	0,000928433612	-0,20239499522730083	0,0075516293948958413	0,20239499522730083
1	0	0	1	0	0	1	101505,06	-0,300000012	3,08753705	-0,00083291947654386355	-0,29984508570958976	0,000925782835	-0,2032279147038447	0,0075827067404378394	0,2032279147038447
1	0	0	1	0	0	1	101515,06	-0,300000012	3,07857084	-0,00083291838256021338	-0,2998446911991047	0,000923093117	-0,20406083308640493	0,0076137840451618368	0,20406083308640493
1	0	0	1	0	0	1	101525,06	-0,300000012	3,07008171	-0,00083291285636193216	-0,29984270181053498	0,000920541584	-0,20489374594276688	0,0076448611436959462	0,20489374594276688
1	0	0	1	0	0	1	101535,06	-0,300000012	3,06088662	-0,0008329139894445737	-0,29984311052203456	0,000917785743	-0,20572665993221146	0,0076759382845068928	0,20572665993221146
1	0	0	1	0	0	1	101545,06	-0,300000012	3,05197763	-0,00083292009859449331	-0,29984531007971462	0,000915121171	-0,20655958003080592	0,0077070156532584358	0,20655958003080592
1	0	0	1	0	0	1	101555,06	-0,300000012	3,0427444	-0,00083292761047184461	-0,2998480141904215	0,000912360847	-0,20739250764127779	0,007738093302288224	0,20739250764127779
1	0	0	1	0	0	1	101565,06	-0,300000012	3,03255725	-0,00083292408065497869	-0,29984674247616678	0,000909302384	-0,20822543172193277	0,0077691708196157965	0,20822543172193277
1	0	0	1	0	0	1	101575,06	-0,300000012	3,02315235	-0,00083292243486973978	-0,2998461500051911	0,000906480593	-0,2090583541568025	0,0078002482755369114	0,2090583541568025
1	0	0	1	0	0	1	101585,06	-0,300000012	3,01315594	-0,00083291779064138739	-0,29984447860471085	0,000903478183	-0,20989127194744387	0,0078313255581756198	0,20989127194744387
1	0	0	1	0	0	1	101595,06	-0,300000012	3,0029881	-0,00083291854119797555	-0,29984474942804749	0,000900430197	-0,21072419048864182	0,0078624028688186048	0,21072419048864182
1	0	0	1	0	0	1	101605,06	-0,300000012	2,99117947	-0,00083291518850458995	-0,29984354248227987	0,000896885875	-0,21155710567714643	0,0078934800543680934	0,21155710567714643
1	0	0	1	0	0	1	101615,06	-0,300000012	2,98112583	-0,00083291540873216256	-0,29984362085509107	0,000893871591	-0,21239002108587856	0,0079245572481345677	0,21239002108587856
1	0	0	1	0	0	1	101625,06	-0,300000012	2,97009945	-0,00083291904495490918	-0,29984492965997261	0,000890569238	-0,21322294013083347	0,0079556345775734016	0,21322294013083347
1	0	0	1	0	0	1	101635,06	-0,300000012	2,95853877	-0,00083290828135609638	-0,29984105500853286	0,000887091388	-0,21405584841218957	0,0079867115054078912	0,21405584841218957
1	0	0	1	0	0	1	101645,06	-0,300000012	2,94699717	-0,00083290860467983616	-0,29984117235220602	0,000883631059	-0,21488875701686941	0,0080177884453060262	0,21488875701686941
1	0	0	1	0	0	1	101655,06	-0,300000012	2,93455911	-0,0008329087016334135	-0,29984120725480416	0,000879901752	-0,21572166571850282	0,0080488653888216282	0,21572166571850282
1	0	0	1	0	0	1	101665,06	-0,300000012	2,92202544	-0,00083290942196713562	-0,299841465983408	0,00087614439	-0,21655457514046998	0,0080799423592138496	0,21655457514046998
1	0	0	1	0	0	1	101675,06	-0,300000012	2,90928197	-0,00083290880564848576	-0,29984124358251654	0,000872322707	-0,21738748394611846	0,0081110193066103936	0,21738748394611846
1	0	0	1	0	0	1	101685,06	-0,300000012	2,89592814	-0,00083291856597695078	-0,29984475723131571	0,000868328847	-0,21822040251209539	0,0081420966181779162	0,21822040251209539
1	0	0	1	0	0	1	101695,06	-0,300000012	2,88263154	-0,00083291704114443738	-0,29984420927982214	0,0008643404	-0,21905331955323984	0,0081731738728518886	0,21905331955323984
1	0	0	1	0	0	1	101705,06	-0,300000012	2,86880064	-0,00083291925667391872	-0,29984500699429722	0,000860195549	-0,21988623880991376	0,0082042512101902426	0,21988623880991376
1	0	0	1	0	0	1	101715,06	-0,300000012	2,85498905	-0,00083291282222668326	-0,29984269037378477	0,000856047613	-0,22071915163214045	0,0082353283074507213	0,22071915163214045
1	0	0	1	0	0	1	101725,06	-0,300000012	2,83982277	-0,00083291109433604608	-0,29984206749026291	0,000851498335	-0,22155206272647651	0,0082664053402412749	0,22155206272647651
1	0	0	1	0	0	1	101735,06	-0,300000012	2,82515264	-0,00083291084132095181	-0,29984197640662925	0,000847099349	-0,22238497356779747	0,008297482363591497	0,22238497356779747
1	0	0	1	0	0	1	101745,06	-0,300000012	2,80964303	-0,00083291085330148544	-0,29984198137575974	0,000842448906	-0,22321788442109894	0,0083285593873887283	0,22321788442109894
1	0	0	1	0	0	1	101755,06	-0,300000012	2,79392362	-0,00083290531740254822	-0,29983998895227763	0,000837730011	-0,22405078973850147	0,0083596362046341261	0,22405078973850147
1	0	0	1	0	0	1	101765,06	-0,300000012	2,77801347	-0,00083290600400997542	-0,29984023612606682	0,000832960242	-0,22488369574251146	0,0083907130474977702	0,22488369574251146
1	0	0	1	0	0	1	101775,06	-0,300000012	2,76097775	-0,00083289816275073421	-0,29983741223948762	0,000827844429	-0,22571659390526218	0,0084217895977934912	0,22571659390526218
1	0	0	1	0	0	1	101785,06	-0,300000012	2,7439611	-0,00083290806341502387	-0,29984097638026106	0,000822751957	-0,22654950196867722	0,0084528665174963059	0,22654950196867722
1	0	0	1	0	0	1	101795,06	-0,300000012	2,72650576	-0,00083291943803595174	-0,29984507149795674	0,000817529333	-0,22738242140671315	0,0084839438616015219	0,22738242140671315
1	0	0	1	0	0	1	101805,06	-0,300000012	2,70859241	-0,00083291344696614477	-0,29984291553733843	0,000812152226	-0,22821533485367933	0,0085150209821718694	0,22821533485367933
1	0	0	1	0	0	1	101815,06	-0,300000012	2,69071746	-0,00083291541793280179	-0,29984362507174976	0,000806794502	-0,2290482502716121	0,008546098176281632	0,2290482502716121
1	0	0	1	0	0	1	101825,06	-0,300000012	2,67150688	-0,00083291636166142093	-0,29984396403941261	0,000801035203	-0,2298811666332735	0,008577175405603177	0,2298811666332735
1	0	0	1	0	0	1	101835,06	-0,300000012	2,65294504	-0,0008329174581302537	-0,29984435841089683	0,000795470609	-0,23071408409140374	0,0086082526758354483	0,23071408409140374
1	0	0	1	0	0	1	101845,06	-0,300000012	2,63352466	-0,00083291438162989082	-0,29984325090749158	0,000789644604	-0,23154699847303363	0,0086393298312793574	0,23154699847303363
1	0	0	1	0	0	1	101855,06	-0,300000012	2,61395168	-0,00083291774724092736	-0,2998444636056679	0,00078377896	-0,23237991622027456	0,0086704071122987379	0,23237991622027456
1	0	0	1	0	0	1	101865,06	-0,300000012	2,59371114	-0,00083291495466894579	-0,29984345829962093	0,000777707319	-0,23321283117494352	0,0087014842891235021	0,23321283117494352
1	0	0	1	0	0	1	101875,06	-0,300000012	2,5732224	-0,00083292842446929882	-0,2998483068868688	0,000771576364	-0,23404575959941283	0,0087325619685246298	0,23404575959941283
1	0	0	1	0	0	1	101885,06	-0,300000012	2,55242848	-0,00083292219251228698	-0,29984606275474195	0,00076533563	-0,23487868179192512	0,0087636394154030605	0,23487868179192512
1	0	0	1	0	0	1	101895,06	-0,300000012	2,53134847	-0,00083292818445132838	-0,29984821981016205	0,000759020331	-0,23571160997637645	0,0087947170858487962	0,23571160997637645
1	0	0	1	0	0	1	101905,06	-0,300000012	2,50984883	-0,00083292474947869786	-0,2998469840542775	0,000752570631	-0,23654453472585514	0,008825794628131081	0,23654453472585514
1	0	0	1	0	0	1	101915,06	-0,300000012	2,48829174	-0,00083292356146540902	-0,29984655668511872	0,000746105739	-0,23737745828732054	0,0088568721260869952	0,23737745828732054
1	0	0	1	0	0	1	101925,06	-0,300000012	2,46669674	-0,00083292464061578112	-0,29984694504591366	0,000739631476	-0,23821038292793632	0,0088879496643074586	0,23821038292793632
1	0	0	1	0	0	1	101935,06	-0,300000012	2,44378519	-0,00083291983228094042	-0,2998452130917417	0,000732757268	-0,23904330276021725	0,0089190270231224858	0,23904330276021725
1	0	0	1	0	0	1	101945,06	-0,300000012	2,42131257	-0,00083292534425854682	-0,29984719736446022	0,000726023805	-0,23987622810447581	0,008950104587596809	0,23987622810447581
1	0	0	1	0	0	1	101955,07	-0,300000012	2,39845848	-0,00083292329700291162	-0,29984646086964544	0,000719169271	-0,24070915140147872	0,0089811820756852698	0,24070915140147872
1	0	0	1	0	0	1	101965,07	-0,300000012	2,37604308	-0,00083293650049467878	-0,29985121465407917	0,000712459383	-0,24154208790197341	0,0090122600564137613	0,24154208790197341
1	0	0	1	0	0	1	101975,07	-0,300000012	2,35299802	-0,00083293515002065242	-0,29985072848605568	0,000705548155	-0,24237502305199405	0,0090433379867542515	0,24237502305199405
1	0	0	1	0	0	1	101985,07	-0,300000012	2,33069706	-0,00083292948695686131	-0,2998486889018519	0,000698856486	-0,24320795253895091	0,0090744157057982195	0,24320795253895091
1	0	0	1	0	0	1	101995,07	-0,300000012	2,30811	-0,0008329211717297632	-0,29984569528378726	0,000692076865	-0,24404087371068067	0,0091054931145898816	0,24404087371068067
1	0	0	1	0	0	1	102005,07	-0,300000012	2,28546572	-0,00083291829111013146	-0,29984465846272678	0,000685284671	-0,24487379200179078	0,0091365704159017523	0,24487379200179078
1	0	0	1	0	0	1	102015,07	-0,300000012	2,26276398	-0,00083292589905361331	-0,29984739820373318	0,000678483862	-0,24570671790084442	0,0091676480010762253	0,24570671790084442
1	0	0	1	0	0	1	102025,07	-0,300000012	2,2403295	-0,0008329230093210935	-0,2998463579136025	0,000671754649	-0,2465396409101655	0,0091987254784308915	0,2465396409101655
1	0	0	1	0	0	1	102035,07	-0,300000012	2,21751356	-0,00083291976813806426	-0,29984519051736979	0,000664910767	-0,24737256067830358	0,0092298028348526618	0,24737256067830358
1	0	0	1	0	0	1	102045,07	-0,300000012	2,19431591	-0,0008329156379799049	-0,29984370317321293	0,000657951809	-0,24820547631628349	0,0092608800371726771	0,24820547631628349
1	0	0	1	0	0	1	102055,07	-0,300000012	2,17073679	-0,00083291288577848013	-0,29984271240028294	0,000650879636	-0,24903838920206195	0,0092919571368043584	0,24903838920206195
1	0	0	1	0	0	1	102065,07	-0,300000012	2,1471386	-0,00083290777942207117	-0,29984087512565997	0,000643799896	-0,24987129698148403	0,0093230340459110157	0,24987129698148403
1	0	0	1	0	0	1	102075,07	-0,300000012	2,12413192	-0,00083291596173908966	-0,29984382084119898	0,000636907818	-0,2507042129432231	0,009354111260310921	0,2507042129432231
1	0	0	1	0	0	1	102085,07	-0,300000012	2,10038114	-0,00083293073204656448	-0,29984913775360026	0,000629797461	-0,25153714367526963	0,009385189025810857	0,25153714367526963
1	0	0	1	0	0	1	102095,07	-0,300000012	2,07701182	-0,00083292134355339738	-0,29984575713907296	0,000622783205	-0,25237006501882304	0,0094162664410134912	0,25237006501882304
1	0	0	1	0	0	1	102105,07	-0,300000012	2,05423403	-0,00083291608517203059	-0,29984386415919622	0,000615949451	-0,25320298110399507	0,0094473436600188467	0,25320298110399507
1	0	0	1	0	0	1	102115,07	-0,300000012	2,03120804	-0,0008329201400362784	-0,29984532453770451	0,000609048235	-0,25403590124403136	0,0094784210303166387	0,25403590124403136
1	0	0	1	0	0	1	102125,07	-0,300000012	2,00904059	-0,0008329112954801984	-0,29984214101770349	0,000602395041	-0,25486881253951155	0,009509498070612151	0,25486881253951155
1	0	0	1	0	0	1	102128,79	-0,300000012	2,00009346	-0,00030991873679392864	-0,29984082734713146	0,000599709689	-0,25517873127630547	0,0095210615553721062	0,25517873127630547
1	1	0	0	1	0	2	102128,79	0,300000012	2,03299546	1,613198717435201E-008	0,096791927838795034	0,000196777546	-0,25517871514431827	0,0095210609534659738	1,613198717435201E-008
1	1	0	0	0	0	2	102138,79	0,300000012	2,60386467	0,00083385491728285939	0,30018183776232365	0,000781632902	-0,25434486022703539	0,0094899487053722893	0,00083387104927003379
1	1	0	0	0	0	2	102148,79	0,300000012	2,98311472	0,00083386032450364698	0,30018378359647526	0,000895482663	-0,25351099990253174	0,0094588362555279283	0,001667731373773681
1	1	0	0	0	0	2	102158,79	0,300000012	3,28351951	0,00083385807014505075	0,30018297204342112	0,000985656632	-0,25267714183238666	0,0094277238897967168	0,0025015894439187315
1	1	0	0	0	0	2	102168,79	0,300000012	3,53894067	0,00083386048630045517	0,3001838425969936	0,00106233277	-0,25184328134608618	0,0093966114339154982	0,0033354499302191866
1	1	0	0	0	0	2	102178,79	0,300000012	3,74634528	0,00083386162173748019	0,30018425170967629	0,00112459389	-0,2510094197243487	0,0093654989356695987	0,0041693115519566675
1	1	0	0	0	0	2	102188,79	0,300000012	3,88637018	0,00083385925574766272	0,30018339990377766	0,00116662378	-0,25017556046860106	0,009334386525701961	0,0050031708077043302
1	1	0	0	0	0	2	102198,79	0,300000012	3,92252111	0,00083387273312277274	0,30018825061456314	0,00117749476	-0,2493416877354783	0,009303273612875337	0,0058370435408271027
1	1	0	0	0	0	2	102208,79	0,300000012	3,93299437	0,00083387489923503667	0,3001890303995655	0,00118064182	-0,24850781283624326	0,009272160619228151	0,0066709184400621389
1	1	0	0	0	0	2	102218,79	0,300000012	3,94138813	0,0008338689683741993	0,30018689576519053	0,00118315301	-0,24767394386786906	0,0092410478468693581	0,0075047874084363379
1	1	0	0	0	0	2	102228,79	0,300000012	3,94438314	0,00083386636587646272	0,30018595956945459	0,00118404848	-0,24684007750199261	0,0092099351716132544	0,0083386537743128013
1	1	0	0	0	0	2	102238,79	0,300000012	3,94785523	0,00083386675505505664	0,30018609967097984	0,00118509121	-0,24600621074693754	0,0091788224818363738	0,0091725205293678579
1	1	0	0	0	0	2	102248,79	0,300000012	3,95138454	0,00083387184595399437	0,30018793149172512	0,00118615793	-0,24517233890098355	0,0091477096021112102	0,010006392375321853
1	1	0	0	0	0	2	102258,79	0,300000012	3,95451307	0,00083387221231891059	0,30018806312887853	0,00118709763	-0,24433846668866467	0,0091165967087164787	0,010840264587640763
1	1	0	0	0	0	2	102268,79	0,300000012	3,95752716	0,00083387810105747648	0,30019018315866746	0,00118801079	-0,24350458858760717	0,009085483595604992	0,01167414268869824
1	1	0	0	0	0	2	102278,79	0,300000012	3,96017885	0,0008338785154819488	0,30019033333400781	0,00118880742	-0,24267071007212525	0,0090543704670307725	0,012508021204180189
1	1	0	0	0	0	2	102288,79	0,300000012	3,96321225	0,00083387069325314637	0,30018751739427565	0,00118970685	-0,2418368393788721	0,0090232576303144269	0,013341891897433334
1	1	0	0	0	0	2	102298,79	0,300000012	3,96550131	0,00083386453697250957	0,30018530063189286	0,0011903852	-0,24100297484189958	0,0089921450232971891	0,014175756434405845
1	1	0	0	0	0	2	102308,79	0,300000012	3,96981287	0,00083386906460920986	0,30018692997578336	0,00119168591	-0,24016910577729037	0,0089610322473477389	0,015009625499015053
1	1	0	0	0	0	2	102318,79	0,300000012	3,97208285	0,0008338698856482903	0,30018722554401037	0,00119236857	-0,23933523589164208	0,008929919440764215	0,015843495384663344
1	1	0	0	0	0	2	102328,79	0,300000012	3,97214007	0,00083387010802328589	0,30018730653397152	0,00119238603	-0,23850136578361878	0,0088988066258835814	0,01667736549268663
1	1	0	0	0	0	2	102338,79	0,300000012	3,9728651	0,00083386599741876122	0,3001858269273033	0,00119259779	-0,23766749978620003	0,0088676939643751309	0,017511231490105392
1	1	0	0	0	0	2	102348,79	0,300000012	3,97450566	0,00083386943186653978	0,30018706306644019	0,00119309523	-0,2368336303543335	0,008836581174722816	0,018345100921971933
1	1	0	0	0	0	2	102358,79	0,300000012	3,97582197	0,00083386879256367693	0,30018683204132717	0,00119348941	-0,23599976156176982	0,0088054684089237491	0,01917896971453561
1	1	0	0	0	0	2	102368,79	0,300000012	3,97792053	0,00083387068521976474	0,30018751338405184	0,00119412213	-0,23516589087655008	0,0087743555725071398	0,020012840399755373
1	1	0	0	0	0	2	102378,80	0,300000012	3,97992349	0,00083386798868742259	0,30018654326314387	0,00119471946	-0,23433202288786266	0,0087432428367017779	0,020846708388442794
1	1	0	0	0	0	2	102388,80	0,300000012	3,98076296	0,00083386889247430694	0,30018686912320966	0,00119497278	-0,23349815399538835	0,008712130067174912	0,021680577280917101
1	1	0	0	0	0	2	102398,80	0,300000012	3,98253703	0,00083387154874040026	0,3001878253601065	0,0011955091	-0,23266428244664794	0,0086810171985391859	0,022514448829657501
1	1	0	0	0	0	2	102408,80	0,300000012	3,98421597	0,00083386596030824717	0,30018581252989978	0,00119600515	-0,23183041648633971	0,0086499045384153779	0,023348314789965747
1	1	0	0	0	0	2	102418,80	0,300000012	3,98587561	0,00083386597839328986	0,30018581895651712	0,00119650329	-0,2309965505079464	0,008618791877616791	0,024182180768359037
1	1	0	0	0	0	2	102428,80	0,300000012	3,98732543	0,00083387242973678643	0,30018814168781702	0,00119694776	-0,2301626780782096	0,0085876789761099059	0,025016053198095824
1	1	0	0	0	0	2	102438,80	0,300000012	3,98822212	0,00083386930791702541	0,30018701867963283	0,00119721249	-0,22932880877029261	0,0085565661910823142	0,025849922506012851
1	1	0	0	0	0	2	102448,80	0,300000012	3,9895575	0,0008338628518068128	0,30018469452588525	0,00119760411	-0,22849494591848579	0,008525453646940873	0,026683785357819664
1	1	0	0	0	0	2	102458,80	0,300000012	3,9913125	0,0008338645247932937	0,30018529607666586	0,00119813334	-0,22766108139369251	0,0084943410403780595	0,027517649882612957
1	1	0	0	0	0	2	102468,80	0,300000012	3,99289584	0,00083386477781501082	0,30018538675731603	0,00119860901	-0,22682721661587747	0,0084632284243746624	0,028351514660427968
1	1	0	0	0	0	2	102478,80	0,300000012	3,9938879	0,00083386228358580006	0,30018448885254758	0,00119890319	-0,22599335433229168	0,0084321159014343117	0,029185376944013766
1	1	0	0	0	0	2	102488,80	0,300000012	3,99533772	0,0008338581777479913	0,30018301187044154	0,00119933253	-0,22515949615454368	0,0084010035316882893	0,030019235121761754
1	1	0	0	0	0	2	102498,80	0,300000012	3,996387	0,00083386047749883597	0,30018383979190451	0,00119965081	-0,22432563567704483	0,0083698910761354726	0,030853095599260589
1	1	0	0	0	0	2	102508,80	0,300000012	3,99749351	0,00083385148452553485	0,30018060199410918	0,00119997002	-0,2234917841925193	0,0083387789561225805	0,031686947083786125
1	1	0	0	0	0	2	102518,80	0,300000012	3,99816108	0,00083385607120725837	0,30018225244178643	0,00120017701	-0,22265792812131206	0,0083076666649744256	0,032520803154993382
1	1	0	0	0	0	2	102528,80	0,300000012	3,99936295	0,0008338554526120425	0,30018202975016288	0,00120053685	-0,2218240726687	0,0082765543969068915	0,033354658607605421
1	1	0	0	0	0	2	102538,80	0,300000012	4,0003171	0,00083385405325061747	0,30018152677277574	0,00120082125	-0,22099021861544938	0,0082454421810514125	0,034188512660856032
1	1	0	0	0	0	2	102548,80	0,300000012	4,00134706	0,00083385745797554662	0,30018275278500128	0,00120113534	-0,22015636115747382	0,0082143298381610675	0,035022370118831578
1	1	0	0	0	0	2	102558,80	0,300000012	4,00205278	0,00083385808082256051	0,30018297693560499	0,00120134815	-0,21932250307665126	0,008183217472031465	0,035856228199654144
1	1	0	0	0	0	2	102568,80	0,300000012	4,00321674	0,00083386135889589786	0,30018415597382003	0,00120170228	-0,21848864171775536	0,0081521049835925376	0,036690089558550042
1	1	0	0	0	0	2	102578,80	0,300000012	4,00445652	0,00083385876955588659	0,30018322382984	0,00120207062	-0,21765478294819949	0,0081209925917653683	0,037523948328105926
1	1	0	0	0	0	2	102588,80	0,300000012	4,00541067	0,00083386196918951142	0,30018437613645734	0,00120236166	-0,21682092097900998	0,0080898800805555661	0,038357810297295437
1	1	0	0	0	0	2	102598,80	0,300000012	4,00621176	0,00083385829278164429	0,30018305331275219	0,00120259693	-0,21598706268622832	0,0080587677065174848	0,039191668590077082
1	1	0	0	0	0	2	102608,80	0,300000012	4,00735617	0,00083386285680035738	0,30018469632702035	0,00120294699	-0,215153199829428	0,008027655162189728	0,04002553144687744
1	1	0	0	0	0	2	102618,80	0,300000012	4,00846291	0,00083386708868377728	0,3001862189082953	0,0012032853	-0,21431933274074422	0,007996542459964713	0,040859398535561216
1	1	0	0	0	0	2	102628,80	0,300000012	4,00943565	0,00083386397608452365	0,30018509814310304	0,00120357284	-0,21348546876465968	0,0079654298738749594	0,041693262511645741
1	1	0	0	0	0	2	102638,80	0,300000012	4,01048517	0,0008338657236165472	0,30018572738197926	0,00120389042	-0,21265160304104314	0,0079343172225824371	0,042527128235262285
1	1	0	0	0	0	2	102648,80	0,300000012	4,01178217	0,00083386007341576947	0,30018369432836979	0,00120427157	-0,21181774296762736	0,0079032047821065011	0,043360988308678061
1	1	0	0	0	0	2	102658,80	0,300000012	4,01294613	0,00083385086176958362	0,30018037820127469	0,00120460766	-0,21098389210585776	0,0078720926853294707	0,044194839170447642
1	1	0	0	0	0	2	102668,80	0,300000012	4,01414776	0,00083385987725853914	0,30018362314005971	0,00120498147	-0,21015003222859923	0,0078409802521724262	0,045028699047706176
1	1	0	0	0	0	2	102678,80	0,300000012	4,01510143	0,00083386139833099302	0,3001841701701737	0,00120526995	-0,20931617083026822	0,0078098677622621222	0,045862560446037171
1	1	0	0	0	0	2	102688,80	0,300000012	4,01637983	0,00083386515565382118	0,30018552277965702	0,00120565912	-0,20848230567461443	0,0077787551321610534	0,046696425601690989
1	1	0	0	0	0	2	102698,80	0,300000012	4,01752424	0,0008338662650999095	0,30018592310889555	0,00120600418	-0,20764843940951453	0,0077476424606650586	0,047530291866790899
1	1	0	0	0	0	2	102708,80	0,300000012	4,01861191	0,00083386494218806426	0,3001854470517593	0,00120632886	-0,20681457446732646	0,0077165298385286822	0,048364156808978963
1	1	0	0	0	0	2	102718,80	0,300000012	4,0196991	0,0008338618277178871	0,30018432561304531	0,00120665063	-0,20598071263960858	0,0076854173325973773	0,049198018636696851
1	1	0	0	0	0	2	102728,80	0,300000012	4,02139711	0,00083386491823361984	0,30018543731007392	0,00120716484	-0,20514684772137494	0,0076543047113547738	0,05003188355493047
1	1	0	0	0	0	2	102738,80	0,300000012	4,02235079	0,00083386152900755405	0,30018421721280582	0,00120744621	-0,20431298619236739	0,0076231922165687539	0,050865745083938022
1	1	0	0	0	0	2	102748,80	0,300000012	4,02395344	0,00083386606949898931	0,30018585237245683	0,00120793388	-0,20347912012286842	0,0075920795523708915	0,051699611153437011
1	1	0	0	0	0	2	102758,80	0,300000012	4,02526951	0,00083386760403381453	0,30018640529729293	0,0012083312	-0,20264525251883462	0,007560966830917472	0,052533478757470829
1	1	0	0	0	0	2	102768,80	0,300000012	4,02567005	0,00083386390310360333	0,30018507298525088	0,00120844611	-0,20181138861573101	0,0075298542475507354	0,053367342660574432
1	1	0	0	0	0	2	102778,80	0,300000012	4,02685308	0,00083386181795928205	0,30018432129976813	0,00120879814	-0,20097752679777171	0,0074987417419835366	0,054201204478533715
1	1	0	0	0	0	2	102788,80	0,300000012	4,0286274	0,0008338681450982889	0,3001865989548999	0,00120933994	-0,20014365865267344	0,0074676290003422746	0,055035072623632006
1	1	0	0	0	0	2	102798,80	0,300000012	4,02946663	0,00083386094920171635	0,30018400877687603	0,0012095815	-0,19930979770347174	0,0074365165271895885	0,055868933572833722
1	1	0	0	0	0	2	102808,80	0,300000012	4,03089714	0,00083386644141707162	0,30018598676004179	0,00121001888	-0,19847593126205469	0,0074054038491149632	0,05670280001425079
1	1	0	0	0	0	2	102818,80	0,300000012	4,03156519	0,00083385677094592	0,30018250545922323	0,00121020537	-0,19764207449110877	0,0073742915318586189	0,05753665678519671
1	1	0	0	0	0	2	102828,80	0,300000012	4,03297663	0,00083384702557987635	0,30017899646992576	0,00121061492	-0,1968082274655289	0,007343179578214985	0,058370503810776589
1	1	0	0	0	0	2	102838,80	0,300000012	4,03436947	0,00083385222407678758	0,30018086750044346	0,00121104054	-0,19597437524145213	0,0073120674306084416	0,059204356034853376
1	1	0	0	0	0	2	102848,80	0,300000012	4,03545666	0,00083386875771151642	0,30018681949130291	0,00121139095	-0,19514050648374061	0,0072809546661097562	0,06003822479256489
1	1	0	0	0	0	2	102858,80	0,300000012	4,0368495	0,00083386206317610214	0,30018441061089843	0,00121179933	-0,19430664442056451	0,0072498421513931878	0,060872086855740992
1	1	0	0	0	0	2	102868,80	0,300000012	4,03786039	0,00083386523701581696	0,30018555319158426	0,00121210737	-0,19347277918354867	0,007218729518256393	0,061705952092756813
1	1	0	0	0	0	2	102878,80	0,300000012	4,03898573	0,00083386587392787136	0,30018578206259872	0,00121244614	-0,19263891330962083	0,0071876168613555533	0,062539817966684685
1	1	0	0	0	0	2	102888,81	0,300000012	4,04014969	0,0008338700002382199	0,30018726679207507	0,00121280144	-0,19180504330938262	0,0071565040504965261	0,063373687966922918
1	1	0	0	0	0	2	102898,81	0,300000012	4,04112244	0,00083387155293590502	0,30018782575306726	0,00121309573	-0,19097117175644672	0,0071253911817042598	0,064207559519858816
1	1	0	0	0	0	2	102908,81	0,300000012	4,04217196	0,00083387406558791795	0,30018873107182752	0,00121341448	-0,19013729769085878	0,0070942782191615706	0,065041433585446746
1	1	0	0	0	0	2	102918,81	0,300000012	4,04291582	0,00083387301766706842	0,30018835416500435	0,00121363625	-0,18930342467319171	0,0070631652957182157	0,065875306603113818
1	1	0	0	0	0	2	102928,81	0,300000012	4,04365969	0,00083386563872463168	0,30018569769862643	0,00121384882	-0,1884695590344671	0,0070320526475931251	0,066709172241838451
1	1	0	0	0	0	2	102938,81	0,300000012	4,04434681	0,00083386976743075571	0,30018718298304448	0,00121406105	-0,18763568926703635	0,007000939845420457	0,06754304200926921
1	1	0	0	0	0	2	102948,81	0,300000012	4,04564381	0,00083387632795174925	0,30018954472392154	0,00121446	-0,18680181293908461	0,0069698267984659302	0,068376918337220954
1	1	0	0	0	0	2	102958,81	0,300000012	4,04659748	0,00083388061521781798	0,30019108857049011	0,00121475256	-0,18596793232386678	0,0069387135915477414	0,069210798952438771
1	1	0	0	0	0	2	102968,81	0,300000012	4,04760885	0,00083388311516079642	0,30019198918916531	0,00121505978	-0,18513404920870595	0,0069076002913533197	0,070044682067599565
1	1	0	0	0	0	2	102978,81	0,300000012	4,04835272	0,00083387312150663808	0,30018839154825798	0,00121526851	-0,18430017608719933	0,0068764873640355699	0,070878555189106202
1	1	0	0	0	0	2	102988,81	0,300000012	4,04930639	0,00083387151890827546	0,30018781372963667	0,00121555245	-0,18346630456829104	0,0068453744965129229	0,071712426708014477
1	1	0	0	0	0	2	102998,81	0,300000012	4,05026054	0,0008338728175361952	0,30018828100279462	0,00121584081	-0,18263243175075485	0,0068142615805367194	0,072546299525550669
1	1	0	0	0	0	2	103008,81	0,300000012	4,05102348	0,00083386354933347968	0,30018494465554547	0,00121605629	-0,18179856820142138	0,0067831490103696218	0,073380163074884147
1	1	0	0	0	0	2	103018,81	0,300000012	4,05203438	0,00083385916119151642	0,30018336593412826	0,00121635327	-0,18096470904022986	0,0067520366039299994	0,074214022236075661
1	1	0	0	0	0	2	103028,81	0,300000012	4,05312204	0,00083385681506825818	0,30018252134644563	0,00121667644	-0,1801308522251616	0,0067209242850273907	0,075047879051143923
1	1	0	0	0	0	2	103038,81	0,300000012	4,05369425	0,00083385420073403251	0,30018157963162413	0,00121684431	-0,17929699802442755	0,0066898120636691072	0,075881733251877952
1	1	0	0	0	0	2	103048,81	0,300000012	4,05453348	0,0008338621734728416	0,30018444921572371	0,00121710787	-0,17846313585095472	0,0066586995448372198	0,076715595425350797
1	1	0	0	0	0	2	103058,81	0,300000012	4,05567837	0,00083386963094605338	0,30018713385301734	0,00121746247	-0,17762926622000867	0,0066275867477569792	0,077549465056296845
1	1	0	0	0	0	2	103068,81	0,300000012	4,0565176	0,00083386810863514739	0,30018658677545491	0,00121771218	-0,1767953981113735	0,0065964740074762061	0,078383333164931981
1	1	0	0	0	0	2	103078,81	0,300000012	4,05728054	0,00083386992390784947	0,30018724043544192	0,00121794385	-0,17596152818746566	0,0065653611994651674	0,079217203088839834
1	1	0	0	0	0	2	103088,81	0,300000012	4,05855894	0,0008338688373068969	0,30018684901522035	0,00121832604	-0,17512765935015875	0,006534248431996672	0,080051071926146726
1	1	0	0	0	0	2	103098,81	0,300000012	4,05932188	0,00083387301343679424	0,30018835152561638	0,0012185612	-0,17429378633672195	0,0065031355087111539	0,080884944939583526
1	1	0	0	0	0	2	103108,81	0,300000012	4,06019974	0,00083386836268338893	0,3001866772874823	0,0012188179	-0,17345991797403856	0,0064720227589514995	0,081718813302266906
1	1	0	0	0	0	2	103118,81	0,300000012	4,06109619	0,00083386696018940877	0,30018617302864909	0,00121908495	-0,17262605101384915	0,0064409100615207795	0,082552680262456307
1	1	0	0	0	0	2	103128,81	0,300000012	4,06233597	0,00083386693771680205	0,30018616542790867	0,00121945702	-0,17179218407613235	0,006409797364928544	0,083386547200173107
1	1	0	0	0	0	2	103138,81	0,300000012	4,06279421	0,00083386362001465434	0,30018497107873773	0,00121958973	-0,1709583204561177	0,0063786847921242368	0,084220410820187763
1	1	0	0	0	0	2	103148,81	0,300000012	4,063519	0,00083387596949603827	0,30018941575580269	0,00121982535	-0,17012444448662163	0,0063475717585441728	0,085054286789683802
1	1	0	0	0	0	2	103158,81	0,300000012	4,06437731	0,00083388479451669581	0,30019259263055424	0,00122009602	-0,16929055969210493	0,0063164583956907251	0,085888171584200499
1	1	0	0	0	0	2	103168,81	0,300000012	4,06552219	0,00083387782207959232	0,30019008292081734	0,00122042943	-0,16845668187002534	0,0062853452929882803	0,08672204940628009
1	1	0	0	0	0	2	103178,81	0,300000012	4,06649494	0,00083387220468289318	0,3001880614947376	0,00122071325	-0,16762280966534246	0,0062542323998784576	0,087555921610962982
1	1	0	0	0	0	2	103188,81	0,300000012	4,06788731	0,00083386737717025805	0,30018632362453203	0,00122112408	-0,16678894228817219	0,006223119686889623	0,088389788988133235
1	1	0	0	0	0	2	103198,81	0,300000012	4,06891775	0,00083386493540141325	0,30018544387825235	0,00122142991	-0,16595507735277078	0,0061920070650064666	0,089223653923534656
1	1	0	0	0	0	2	103208,81	0,300000012	4,07013845	0,00083386566128498982	0,30018570479978547	0,00122179743	-0,16512121169148579	0,0061608944160396186	0,090057519584819635
1	1	0	0	0	0	2	103218,81	0,300000012	4,07090187	0,00083386329483158054	0,30018485289339635	0,00122202304	-0,16428734839665421	0,0061297818553683277	0,090891382879651226
1	1	0	0	0	0	2	103228,81	0,300000012	4,07195091	0,00083386216183172339	0,3001844461397616	0,00122233632	-0,16345348623482246	0,0060986693369707853	0,091725245041482944
1	1	0	0	0	0	2	103238,81	0,300000012	4,07319117	0,00083386421585083021	0,30018518557202765	0,00122271164	-0,16261962201897165	0,0060675567419350285	0,09255910925733376
1	1	0	0	0	0	2	103248,81	0,300000012	4,07427835	0,00083387852495908736	0,3001903363302889	0,00122305902	-0,16178574349401258	0,0060364436130072051	0,093392987782292851
1	1	0	0	0	0	2	103258,81	0,300000012	4,0752511	0,00083387361695037952	0,30018856878315507	0,00122334377	-0,16095186987706218	0,0060053306672037837	0,094226861399243226
1	1	0	0	0	0	2	103268,81	0,300000012	4,07580423	0,00083387893570793997	0,30019048349803194	0,0012235177	-0,16011799094135424	0,0059742175229503667	0,095060740334951168
1	1	0	0	0	0	2	103278,81	0,300000012	4,07675838	0,0008338970126973257	0,30019699188237434	0,00122383062	-0,15928409392865693	0,0059431037042201715	0,095894637347648499
1	1	0	0	0	0	2	103288,81	0,300000012	4,07799816	0,00083389095657401613	0,30019481204214035	0,00122419384	-0,15845020297208291	0,0059119901114520794	0,096728528304222515
1	1	0	0	0	0	2	103298,81	0,300000012	4,07876158	0,00083388775614566272	0,30019365981285094	0,0012244184	-0,15761631521593725	0,0058808766380962726	0,097562416060368179
1	1	0	0	0	0	2	103308,81	0,300000012	4,07988691	0,0008338828633228937	0,300191897411032	0,00122474902	-0,15678243235261437	0,0058497633472982618	0,098396298923691072
1	1	0	0	0	0	2	103318,81	0,300000012	4,08059263	0,00083388056518634163	0,30019107009997267	0,00122495752	-0,155948551787428	0,005818650142246816	0,099230179488877414
1	1	0	0	0	0	2	103328,81	0,300000012	4,08181381	0,00083388448557257651	0,3001924818846448	0,00122532982	-0,15511466730185542	0,0057875367909204877	0,10006406397444998
1	1	0	0	0	0	2	103338,81	0,300000012	4,08284378	0,00083388457138505254	0,30019251341953786	0,00122563913	-0,15428078273047037	0,0057564234363923808	0,10089794854583504
1	1	0	0	0	0	2	103348,81	0,300000012	4,08383608	0,00083389117649197581	0,30019489121104134	0,0012259467	-0,1534468915539784	0,0057253098354188544	0,10173183972232702
1	1	0	0	0	0	2	103358,81	0,300000012	4,08465624	0,00083389010717802573	0,30019450537448941	0,00122619141	-0,15261300144680038	0,0056941962743428691	0,10256572982950504
1	1	0	0	0	0	2	103368,81	0,300000012	4,08568621	0,00083388003733588595	0,30019088007931174	0,00122648571	-0,15177912140946448	0,0056630830889862317	0,10339960986684093
1	1	0	0	0	0	2	103378,81	0,300000012	4,08650684	0,00083386968145933414	0,30018715219120006	0,00122671691	-0,15094525172800515	0,0056319702900212742	0,10423347954830026
1	1	0	0	0	0	2	103388,82	0,300000012	4,08767033	0,00083387041749225728	0,30018741812231731	0,0012270672	-0,1501113813105129	0,0056008574635939386	0,10506734996579253
1	1	0	0	0	0	2	103398,82	0,300000012	4,08845234	0,00083386972398559245	0,30018716846485165	0,00122730096	-0,14927751158652733	0,0055697446630422682	0,10590121968977811
1	1	0	0	0	0	2	103408,82	0,300000012	4,08936834	0,00083388244907889101	0,30019174882780506	0,00122759468	-0,14844362913744845	0,0055386313877002579	0,10673510213885701
1	1	0	0	0	0	2	103418,82	0,300000012	4,08984518	0,00083388266469538214	0,30019182591003578	0,0012277381	-0,14760974647275306	0,0055075181043133056	0,10756898480355238
1	1	0	0	0	0	2	103428,82	0,300000012	4,09085608	0,00083387531998587981	0,3001891818668752	0,00122803077	-0,14677587115276717	0,0054764050949673408	0,10840286012353827
1	1	0	0	0	0	2	103438,82	0,300000012	4,09163857	0,0008338748379333152	0,30018900929588909	0,00122826488	-0,14594199631483386	0,0054452921036074048	0,10923673496147158
1	1	0	0	0	0	2	103448,82	0,300000012	4,09253502	0,00083386863886978893	0,30018677783088186	0,00122852495	-0,14510812767596406	0,0054141793435428653	0,11007060360034138
1	1	0	0	0	0	2	103458,82	0,300000012	4,09352684	0,00083387631375259827	0,30018954046151539	0,00122883392	-0,14427425136221149	0,0053830662971181274	0,11090447991409398
1	1	0	0	0	0	2	103468,82	0,300000012	4,09415627	0,00083387686912549862	0,30018973954611533	0,00122902368	-0,14344037449308597	0,00535195322997168	0,11173835678321949
1	1	0	0	0	0	2	103478,82	0,300000012	4,09507227	0,00083387471252017536	0,30018896318354406	0,00122929551	-0,14260649978056581	0,0053208402432910778	0,11257223149573966
1	1	0	0	0	0	2	103488,82	0,300000012	4,09615946	0,00083386940078768474	0,30018705164064282	0,00122961402	-0,14177263037977811	0,0052897274547983552	0,11340610089652734
1	1	0	0	0	0	2	103498,82	0,300000012	4,09720898	0,00083386196442941824	0,30018437507983059	0,0012299181	-0,14093876841534869	0,0052586149437661587	0,11423996286095677
1	1	0	0	0	0	2	103508,82	0,300000012	4,09785748	0,00083386008645759693	0,30018369902333478	0,00123011007	-0,14010490832889109	0,005227502502803616	0,11507382294741437
1	1	0	0	0	0	2	103518,82	0,300000012	4,09888744	0,0008338675007406208	0,30018636705013171	0,00123043009	-0,13927104082815045	0,0051963897852042035	0,11590769044815498
1	1	0	0	0	0	2	103528,82	0,300000012	4,09951735	0,00083386460677617126	0,30018532518760858	0,00123061496	-0,13843717622137427	0,0051652771755824966	0,11674155505493115
1	1	0	0	0	0	2	103538,82	0,300000012	4,10064268	0,00083386406024131507	0,30018512876044742	0,00123095198	-0,13760331216113298	0,0051341645863527418	0,11757541911517248
1	1	0	0	0	0	2	103548,82	0,300000012	4,10140562	0,00083386405480570266	0,30018512760042202	0,00123118097	-0,13676944810632726	0,0051030519973257946	0,11840928316997816
1	1	0	0	0	0	2	103558,82	0,300000012	4,10220718	0,00083385778878132506	0,30018287187272819	0,00123141229	-0,13593559031754595	0,0050719396420926432	0,1192431409587595
1	1	0	0	0	0	2	103568,82	0,300000012	4,10297012	0,0008338621372299063	0,30018443652846227	0,0012316478	-0,13510172818031605	0,0050408271246130278	0,12007700309598941
1	1	0	0	0	0	2	103578,82	0,300000012	4,10386658	0,00083386798653668826	0,3001865418738519	0,00123192556	-0,13426786019377934	0,0050097143888879117	0,12091087108252611
1	1	0	0	0	0	2	103588,82	0,300000012	4,10468721	0,00083386165226499238	0,30018426158111213	0,00123216247	-0,13343399854151435	0,0049786018895029894	0,12174473273479109
1	1	0	0	0	0	2	103598,82	0,300000012	4,10562181	0,00083384931407041037	0,30017982103708819	0,00123242487	-0,13260014922744395	0,004947489850472697	0,12257858204886149
1	1	0	0	0	0	2	103608,82	0,300000012	4,10659456	0,00083385040822790733	0,30018021493299226	0,00123271847	-0,13176629881921603	0,0049163777706179155	0,12341243245708941
1	1	0	0	0	0	2	103618,82	0,300000012	4,10749149	0,00083385932818882995	0,30018342561515731	0,00123300089	-0,1309324394910272	0,004885265357947399	0,12424629178527824
1	1	0	0	0	0	2	103628,82	0,300000012	4,10833073	0,00083386346932583386	0,30018491571008595	0,00123325887	-0,13009857602170136	0,0048541527907654938	0,12508015525460408
1	1	0	0	0	0	2	103638,82	0,300000012	4,10894108	0,00083385324620041587	0,3001812354576768	0,00123342697	-0,12926472277550094	0,0048230406050221427	0,1259140085008045
1	1	0	0	0	0	2	103648,82	0,300000012	4,10976124	0,00083385220925675494	0,30018086296251904	0,00123367168	-0,12843087056624419	0,0047919284579685542	0,12674786071006125
1	1	0	0	0	0	2	103658,82	0,300000012	4,11054373	0,00083384744390348595	0,3001791477907367	0,0012338995	-0,1275970231223407	0,0047608164887167027	0,12758170815396475
1	1	0	0	0	0	2	103668,82	0,300000012	4,11115408	0,00083385093630684736	0,30018040491884122	0,00123408786	-0,12676317218603386	0,0047297043891585875	0,12841555909027158
1	1	0	0	0	0	2	103678,82	0,300000012	4,11201239	0,0008338533586594793	0,30018127594213946	0,0012343491	-0,12592931882737437	0,0046985921992192371	0,12924941244893107
1	1	0	0	0	0	2	103688,82	0,300000012	4,11292839	0,00083385632942285798	0,30018234539669133	0,00123462849	-0,1250954624979515	0,0046674798984367117	0,13008326877835394
1	1	0	0	0	0	2	103698,82	0,300000012	4,11422539	0,00083386403622726605	0,30018512026582598	0,00123502919	-0,12426159846172424	0,0046363673101029517	0,1309171328145812
1	1	0	0	0	0	2	103708,82	0,300000012	4,1153512	0,00083386943174070784	0,30018706325702496	0,00123537518	-0,12342772902998354	0,0046052545204553312	0,13175100224632192
1	1	0	0	0	0	2	103718,82	0,300000012	4,11613321	0,00083387391964097818	0,30018867886744794	0,00123561663	-0,12259385511034256	0,0045741415633581171	0,1325848761659629
1	1	0	0	0	0	2	103728,82	0,300000012	4,11701059	0,00083387478703260429	0,30018899021366906	0,00123588124	-0,12175998032330995	0,0045430285738973549	0,13341875095299552
1	1	0	0	0	0	2	103738,82	0,300000012	4,11809826	0,00083388290418518912	0,30019191212116762	0,00123621977	-0,12092609741912477	0,0045119152815747168	0,1342526338571807
1	1	0	0	0	0	2	103748,82	0,300000012	4,11939526	0,00083387258378002381	0,30018819701648154	0,00123659382	-0,12009222483534474	0,004480802374320272	0,13508650644096074
1	1	0	0	0	0	2	103758,82	0,300000012	4,12065458	0,00083386782852477491	0,30018648610894707	0,00123696483	-0,11925835700681997	0,0044496896444907923	0,1359203742694855
1	1	0	0	0	0	2	103768,82	0,300000012	4,12160826	0,00083386849040124147	0,30018672438326106	0,00123725203	-0,11842448851641872	0,0044185768899658131	0,13675424275988674
1	1	0	0	0	0	2	103778,82	0,300000012	4,12277174	0,00083387292998366886	0,30018832201426163	0,00123760791	-0,11759061558643504	0,0043874639697940442	0,1375881156898704
1	1	0	0	0	0	2	103788,82	0,300000012	4,12355423	0,00083386953239970726	0,30018709837703392	0,00123783783	-0,11675674605403533	0,0043563511763907002	0,1384219852222701
1	1	0	0	0	0	2	103798,82	0,300000012	4,1245079	0,00083387109842896461	0,30018766213642368	0,00123812642	-0,11592287495560637	0,0043252383245567002	0,13925585632069906
1	1	0	0	0	0	2	103808,82	0,300000012	4,12534714	0,00083386249761283392	0,30018456687529651	0,00123836554	-0,11508901245799355	0,0042941257936307136	0,14008971881831189
1	1	0	0	0	0	2	103818,82	0,300000012	4,12633944	0,00083385962967243456	0,30018353458392602	0,00123865914	-0,11425515282832112	0,0042630133697114387	0,14092357844798434
1	1	0	0	0	0	2	103828,82	0,300000012	4,1267972	0,00083386018533507981	0,30018373433896294	0,00123879744	-0,11342129264298603	0,0042319009250596435	0,14175743863331941
1	1	0	0	0	0	2	103838,82	0,300000012	4,1280179	0,00083387037824591014	0,30018740287564845	0,00123917894	-0,11258742226474013	0,0042007881000966413	0,14259130901156533
1	1	0	0	0	0	2	103848,82	0,300000012	4,12862873	0,00083386627076069517	0,30018592421019731	0,00123935624	-0,11175355599397942	0,0041696754283894355	0,14342517528232603
1	1	0	0	0	0	2	103858,82	0,300000012	4,12942982	0,00083385943013760781	0,30018346229153037	0,00123958651	-0,11091969656384182	0,0041385630119150733	0,14425903471246365
1	1	0	0	0	0	2	103868,82	0,300000012	4,13028812	0,00083385521039201152	0,30018194367441254	0,00123983796	-0,11008584135344981	0,0041074507528850931	0,14509288992285565
1	1	0	0	0	0	2	103878,82	0,300000012	4,13147116	0,00083385625983443533	0,30018232146621939	0,00124019466	-0,10925198509361536	0,0040763384546990048	0,14592674618269008
1	1	0	0	0	0	2	103888,82	0,300000012	4,13210058	0,00083385815150042368	0,30018300137620538	0,00124038639	-0,10841812694211493	0,0040452260859323149	0,1467606043341905
1	1	0	0	0	0	2	103898,83	0,300000012	4,13276815	0,00083386879748437146	0,30018683381274227	0,00124060258	-0,10758425814463056	0,0040141133199496518	0,14759447313167488
1	1	0	0	0	0	2	103908,83	0,300000012	4,13351202	0,00083386565345691302	0,30018570232070515	0,00124082121	-0,10675039249117365	0,0039830006712748787	0,14842833878513178
1	1	0	0	0	0	2	103918,83	0,300000012	4,13425636	0,00083385788781609805	0,30018290752803642	0,00124103308	-0,10591653460335755	0,0039518883123466067	0,14926219667294787
1	1	0	0	0	0	2	103928,83	0,300000012	4,13511467	0,0008338648300353024	0,30018540667756288	0,00124130107	-0,10508266977332224	0,0039207756943948006	0,1500960615029832
1	1	0	0	0	0	2	103938,83	0,300000012	4,13412285	0,00083386422493888269	0,3001851880923344	0,00124100246	-0,10424880554838338	0,0038896630990199571	0,15092992572792208
1	1	0	0	0	0	2	103948,83	0,300000012	4,13461876	0,00083386190107299226	0,30018435115371616	0,00124114787	-0,10341494364731038	0,0038585505903516742	0,15176378762899507
1	1	0	0	0	0	2	103958,83	0,300000012	4,13557243	0,00083386859688825075	0,30018676161004973	0,00124144414	-0,10258107505042213	0,0038274378318535213	0,1525976562258833
1	1	0	0	0	0	2	103968,83	0,300000012	4,13604927	0,00083387164415750246	0,30018785970958451	0,00124159176	-0,10174720340626462	0,003796324959657655	0,1534315278700408
1	1	0	0	0	0	2	103978,83	0,300000012	4,13692713	0,00083387517923447821	0,30018913231214714	0,00124186056	-0,10091332822703016	0,0037652119555633146	0,15426540304927526
1	1	0	0	0	0	2	103988,83	0,300000012	4,1378808	0,00083386864010492966	0,3001867778387031	0,00124213705	-0,10007945958692522	0,0037340991954526893	0,15509927168938019
1	1	0	0	0	0	2	103998,83	0,300000012	4,13885403	0,00083386144769688448	0,30018418793804877	0,00124241854	-0,099245598139228339	0,0037029867037004781	0,15593313313707709
1	1	0	0	0	0	2	104008,83	0,300000012	4,13967419	0,00083386130602326643	0,30018413693655443	0,00124266453	-0,098411736833205069	0,0036718742172343002	0,15676699444310032
1	1	0	0	0	0	2	104018,83	0,300000012	4,14062786	0,00083386299558315008	0,30018474599080243	0,00124295335	-0,097577873837621926	0,0036407616677283712	0,15760085743868349
1	1	0	0	0	0	2	104028,83	0,300000012	4,1413908	0,0008338553715828393	0,30018200169846931	0,00124317093	-0,096744018466039078	0,0036096494026841446	0,15843471281026634
1	1	0	0	0	0	2	104038,83	0,300000012	4,14291716	0,0008338639196356137	0,30018507882526842	0,00124364195	-0,095910154546403482	0,003578536818700576	0,15926857672990195
1	1	0	0	0	0	2	104048,83	0,300000012	4,1436801	0,00083385507449673293	0,30018189363177869	0,00124385778	-0,095076299471906739	0,003547424564741031	0,16010243180439869
1	1	0	0	0	0	2	104058,83	0,300000012	4,14457703	0,00083385610704289536	0,3001822653410503	0,00124412857	-0,094242443364863846	0,0035163122722558016	0,16093628791144157
1	1	0	0	0	0	2	104068,83	0,300000012	4,14543533	0,00083386249920725837	0,30018456697795194	0,00124439574	-0,093408580865656576	0,0034851997412703245	0,16177015041064883
1	1	0	0	0	0	2	104078,83	0,300000012	4,14671373	0,00083386371469332109	0,3001850051588896	0,00124478131	-0,092574717150963251	0,0034540871649334278	0,16260401412534214
1	1	0	0	0	0	2	104088,83	0,300000012	4,1474576	0,00083386624385250944	0,30018591563820493	0,00124500832	-0,091740850907110746	0,0034229744942302022	0,16343788036919466
1	1	0	0	0	0	2	104098,83	0,300000012	4,14797258	0,00083386444786025408	0,30018526818518746	0,00124516024	-0,090906986459250496	0,0033918618905378624	0,16427174481705491
1	1	0	0	0	0	2	104108,83	0,300000012	4,14909792	0,00083385549139645363	0,30018204371402221	0,00124548469	-0,090073130967854029	0,0033607496210232282	0,16510560030845136
1	1	0	0	0	0	2	104118,83	0,300000012	4,14970875	0,0008338539599759712	0,30018149259351206	0,00124566571	-0,089239277007878067	0,003329637408647952	0,16593945426842736
1	1	0	0	0	0	2	104128,83	0,300000012	4,15075779	0,00083385421790679296	0,3001815863832999	0,00124598108	-0,088405422789971264	0,0032985251866489293	0,16677330848633414
1	1	0	0	0	0	2	104138,83	0,300000012	4,15209341	0,00083386291741993702	0,30018471814614317	0,00124639494	-0,087571559872551334	0,0032674126400593754	0,16760717140375408
1	1	0	0	0	0	2	104148,83	0,300000012	4,15251303	0,0008338732915884919	0,30018845217195226	0,0012465365	-0,086737686580962842	0,0032362997063956442	0,16844104469534256
1	1	0	0	0	0	2	104158,83	0,300000012	4,15342855	0,00083387024599479296	0,30018735526269274	0,0012468067	-0,085903816334968051	0,0032051868863671085	0,16927491494133738
1	1	0	0	0	0	2	104168,83	0,300000012	4,1541152	0,00083386393243074419	0,30018508242805306	0,00124700344	-0,085069952402537306	0,0031740743019061363	0,1701087788737681
1	1	0	0	0	0	2	104178,83	0,300000012	4,15476418	0,00083385827728940378	0,30018304759587494	0,00124718982	-0,084236094125247898	0,0031429619284460909	0,1709426371510575
1	1	0	0	0	0	2	104188,83	0,300000012	4,155756	0,00083385892850491725	0,30018328216860787	0,00124748843	-0,083402235196742976	0,0031118495306883194	0,1717764960795624
1	1	0	0	0	0	2	104198,83	0,300000012	4,15627098	0,00083386084511710541	0,30018397184182003	0,00124764594	-0,082568374351625869	0,0030807370614191699	0,17261035692467952
1	1	0	0	0	0	2	104208,83	0,300000012	4,15743494	0,00083386239313582579	0,30018452829283507	0,00124799763	-0,081734511958490048	0,0030496245343913606	0,17344421931781533
1	1	0	0	0	0	2	104218,83	0,300000012	4,1582551	0,00083385864204333888	0,30018317792623014	0,00124823826	-0,080900653316446707	0,003018512147321856	0,17427807795985866
1	1	0	0	0	0	2	104228,83	0,300000012	4,15897989	0,00083385521908601114	0,30018194634291546	0,00124845072	-0,080066798097360691	0,0029873998879674912	0,1751119331789447
1	1	0	0	0	0	2	104238,83	0,300000012	4,15985775	0,00083386709281636608	0,30018622126264832	0,00124873198	-0,079232931004544333	0,0029562871855882816	0,17594580027176106
1	1	0	0	0	0	2	104248,83	0,300000012	4,16067791	0,00083387400234573427	0,30018870863707712	0,00124898856	-0,078399057002198592	0,0029251742254052429	0,17677967427410678
1	1	0	0	0	0	2	104258,83	0,300000012	4,16153622	0,0008338652430342304	0,30018555426393907	0,00124923303	-0,077565191759164365	0,0028940615920438918	0,17761353951714102
1	1	0	0	0	0	2	104268,83	0,300000012	4,16250944	0,00083386881891720819	0,30018684152841094	0,00124953059	-0,076731322940247142	0,0028629488252615398	0,17844740833605821
1	1	0	0	0	0	2	104278,83	0,300000012	4,16346312	0,0008338605707188448	0,30018387257116403	0,00124980451	-0,075897462369528307	0,0028318363662305587	0,17928126890677706
1	1	0	0	0	0	2	104288,83	0,300000012	4,16346312	0,0008338533008578752	0,3001812562557079	0,00124979357	-0,075063609068670438	0,0028007241784478646	0,18011512220763491
1	1	0	0	0	0	2	104298,83	0,300000012	4,16409254	0,00083385806084838182	0,30018296981842765	0,00124998961	-0,074229751007822042	0,0027696118130635248	0,1809489802684833
1	1	0	0	0	0	2	104308,83	0,300000012	4,1649127	0,00083386197164985869	0,30018437691033958	0,00125024177	-0,073395889036172186	0,0027384993017619232	0,18178284224013315
1	1	0	0	0	0	2	104318,83	0,300000012	4,16550446	0,0008338644956979488	0,30018528520023878	0,00125042314	-0,07256202454047424	0,0027073866962846947	0,1826167067358311
1	1	0	0	0	0	2	104328,83	0,300000012	4,16640091	0,00083386006944212646	0,30018369180759347	0,00125068566	-0,071728164471032115	0,0026762742559570218	0,18345056680527325
1	1	0	0	0	0	2	104338,83	0,300000012	4,16706848	0,00083386906986269683	0,30018693298526266	0,00125089951	-0,070894295401169408	0,0026451614798115565	0,18428443587513594
1	1	0	0	0	0	2	104348,83	0,300000012	4,16754532	0,00083386534329255411	0,30018559145001677	0,001251037	-0,070060430057876864	0,0026140488427094333	0,18511830121842848
1	1	0	0	0	0	2	104358,83	0,300000012	4,16815615	0,00083386738758451418	0,30018632692628646	0,0012512235	-0,069226562670292352	0,0025829361293320288	0,18595216860601299
1	1	0	0	0	0	2	104368,83	0,300000012	4,16880465	0,00083386456905636518	0,30018531160525222	0,00125141395	-0,068392698101235994	0,0025518235211176989	0,18678603317506938
1	1	0	0	0	0	2	104378,83	0,300000012	4,16937685	0,00083387245204713613	0,30018814942583936	0,00125159754	-0,067558825649188864	0,0025207106187783843	0,18761990562711651
1	1	0	0	0	0	2	104388,83	0,300000012	4,17036915	0,0008338693046321472	0,30018701720355642	0,00125189067	-0,06672495634455671	0,0024895978338733546	0,18845377493174864
1	1	0	0	0	0	2	104398,84	0,300000012	4,17092228	0,00083387431602511142	0,30018882156291597	0,00125206425	-0,065891082028531597	0,0024584848619865158	0,18928764924777376
1	1	0	0	0	0	2	104408,84	0,300000012	4,17113209	0,00083387247691717414	0,30018815935735878	0,00125212444	-0,065057209551614426	0,0024273719587192669	0,19012152172469094
1	1	0	0	0	0	2	104418,84	0,300000012	4,17157078	0,00083387734037141005	0,30018990918779578	0,00125226344	-0,064223332211243021	0,0023962588739900016	0,19095539906506234
1	1	0	0	0	0	2	104428,84	0,300000012	4,1722002	0,00083387138620018957	0,3001877657285225	0,00125244341	-0,063389460825042829	0,0023651460114188701	0,19178927045126253
1	1	0	0	0	0	2	104438,84	0,300000012	4,17307806	0,0008338731813745367	0,30018841248217107	0,00125270966	-0,062555587643668301	0,0023340330818673693	0,19262314363263709
1	1	0	0	0	0	2	104448,84	0,300000012	4,17370749	0,00083387121410999027	0,30018770489597632	0,00125289569	-0,061721716429558298	0,0023029202257171542	0,19345701484674707
1	1	0	0	0	0	2	104458,84	0,300000012	4,17521429	0,00083387595239116083	0,30018941064305261	0,00125335506	-0,060887840477167142	0,0022718071927752976	0,19429089079913821
1	1	0	0	0	0	2	104468,84	0,300000012	4,17679787	0,00083386948054201075	0,3001870798868551	0,00125382072	-0,060053970996625126	0,0022406944013068352	0,19512476027968022
1	1	0	0	0	0	2	104478,84	0,300000012	4,17643547	0,00083386452324026163	0,30018529511265459	0,00125370454	-0,05922010647338487	0,0022095817948019654	0,19595862480292051
1	1	0	0	0	0	2	104488,84	0,300000012	4,17700768	0,00083385585904783667	0,30018217624587149	0,00125386321	-0,058386250614337037	0,0021784695115697645	0,19679248066196832
1	1	0	0	0	0	2	104498,84	0,300000012	4,17798042	0,0008338579485863447	0,30018292940314566	0,00125415844	-0,057552392665750694	0,0021473571503740726	0,19762633861055469
1	1	0	0	0	0	2	104508,84	0,300000012	4,17868662	0,00083385220383935501	0,3001808613333504	0,0012543617	-0,056718540461911334	0,0021162450035226141	0,19846019081439405
1	1	0	0	0	0	2	104518,84	0,300000012	4,17935419	0,00083385728720161651	0,30018269069256634	0,00125456974	-0,055884683174709715	0,0020851326670040752	0,19929404810159565
1	1	0	0	0	0	2	104528,84	0,300000012	4,18000269	0,00083384806492096845	0,3001793702339424	0,00125475053	-0,055050835109788749	0,0020540206745812269	0,20012789616651661
1	1	0	0	0	0	2	104538,84	0,300000012	4,18097591	0,000833848111660944	0,30017938706000109	0,00125504273	-0,054216986998127802	0,0020229086804144474	0,20096174427817757
1	1	0	0	0	0	2	104548,84	0,300000012	4,18154812	0,00083385408538579942	0,30018153854389389	0,00125522353	-0,05338313291274201	0,0019917964633599616	0,20179559836356336
1	1	0	0	0	0	2	104558,84	0,300000012	4,18244457	0,00083386239938272371	0,30018453165992634	0,00125550514	-0,052549270513359283	0,0019606839360990723	0,20262946076294608
1	1	0	0	0	0	2	104568,84	0,300000012	4,1840663	0,00083386507915291533	0,30018549606458912	0,00125599606	-0,051715405434206362	0,0019295713088523542	0,20346332584209901
1	1	0	0	0	0	2	104578,84	0,300000012	4,18563032	0,00083386375013324941	0,3001850168022521	0,00125646347	-0,050881541684073114	0,0018984587311931466	0,20429718959223226
1	1	0	0	0	0	2	104588,84	0,300000012	4,1865654	0,00083386745418773747	0,30018635023551206	0,00125674973	-0,050047674229885376	0,0018673460153306861	0,20513105704642
1	1	0	0	0	0	2	104598,84	0,300000012	4,18704224	0,00083386324815286528	0,3001848367638377	0,00125688664	-0,049213810981732512	0,0018362334564010416	0,20596492029457286
1	1	0	0	0	0	2	104608,84	0,300000012	4,18782425	0,00083386544982095565	0,30018562979598886	0,00125712471	-0,048379945531911558	0,0018051208153242006	0,20679878574439382
1	1	0	0	0	0	2	104618,84	0,300000012	4,18841553	0,00083386038109329011	0,30018380509008832	0,00125729456	-0,047546085150818272	0,0017740083633684038	0,2076326461254871
1	1	0	0	0	0	2	104628,84	0,300000012	4,18881655	0,0008338608320189847	0,30018396632983648	0,00125741551	-0,046712224318799283	0,0017428958945879629	0,20846650695750608
1	1	0	0	0	0	2	104638,84	0,300000012	4,18931246	0,00083385345735318131	0,30018131147466445	0,00125755335	-0,045878370861446106	0,0017117837009662189	0,20930036041485926
1	1	0	0	0	0	2	104648,84	0,300000012	4,18988466	0,00083384812229871744	0,3001793912564441	0,00125771703	-0,045044522739147386	0,0016806717064025296	0,21013420853715798
1	1	0	0	0	0	2	104658,84	0,300000012	4,19026613	0,00083385208614998387	0,30018081896950854	0,00125783752	-0,044210670652997402	0,0016495595639422198	0,21096806062330794
1	1	0	0	0	0	2	104668,84	0,300000012	4,19095278	0,00083386119923326707	0,30018409961465978	0,00125805743	-0,043376809453764134	0,0016184470814605203	0,21180192182254122
1	1	0	0	0	0	2	104678,84	0,300000012	4,1916399	0,00083387955664098266	0,30019070738202797	0,0012582913	-0,042542929897123149	0,0015873339140392573	0,21263580137918221
1	1	0	0	0	0	2	104688,84	0,300000012	4,19234562	0,00083387671512530906	0,30018968410714285	0,00125849887	-0,041709053181997837	0,0015562208526387642	0,21346967809430749
1	1	0	0	0	0	2	104698,84	0,300000012	4,19272709	0,00083387802040576934	0,30019015404075622	0,0012586154	-0,040875175161592064	0,0015251077425365024	0,21430355611471328
1	1	0	0	0	0	2	104708,84	0,300000012	4,19366169	0,00083386850538187558	0,30018672977618272	0,00125888165	-0,040041306656210189	0,0014939949874525754	0,21513742462009514
1	1	0	0	0	0	2	104718,84	0,300000012	4,19490194	0,00083385767172773683	0,30018282973776365	0,00125923753	-0,039207448984482451	0,0014628826365868499	0,21597128229182288
1	1	0	0	0	0	2	104728,84	0,300000012	4,19619894	0,0008338627493828535	0,30018465719620378	0,0012596345	-0,038373586235099603	0,0014317700962669853	0,21680514504120573
1	1	0	0	0	0	2	104738,84	0,300000012	4,1970911	0,00083386523833374182	0,30018555254384019	0,0012599061	-0,037539720996765856	0,0014006574630810166	0,21763901027953946
1	1	0	0	0	0	2	104748,84	0,300000012	4,19808292	0,00083385546932783386	0,3001820357677289	0,00126018911	-0,036705865527438022	0,0013695451943897928	0,2184728657488673
1	1	0	0	0	0	2	104758,84	0,300000012	4,19890308	0,00083384754597147302	0,30017918425449094	0,00126042333	-0,035872017981466547	0,0013384332213296477	0,21930671329483875
1	1	0	0	0	0	2	104768,84	0,300000012	4,19976187	0,00083386293640567194	0,3001847249808727	0,00126070436	-0,03503815504506087	0,0013073206740317099	0,22014057623124442
1	1	0	0	0	0	2	104770,68	0,300000012	4,19989538	0,00015364449714124202	0,30018469625699373	0,00126074429	-0,034884510547919635	0,001301587991266147	0,22029422072838566