LNMO auf gem LiLA 2,5  Original Data
 3151 
 12            245 
 12.02         224 
 12.04         257 
 12.06         237 
 12.08         253 
 12.1          227 
 12.12         252 
 12.14         267 
 12.16         204 
 12.18         232 
 12.2          260 
 12.22         244 
 12.24         227 
 12.26         234 
 12.28         235 
 12.3          208 
 12.32         224 
 12.34         236 
 12.36         219 
 12.38         207 
 12.4          254 
 12.42         247 
 12.44         225 
 12.46         232 
 12.48         210 
 12.5          225 
 12.52         223 
 12.54         203 
 12.56         223 
 12.58         227 
 12.6          230 
 12.62         238 
 12.64         226 
 12.66         237 
 12.68         196 
 12.7          218 
 12.72         206 
 12.74         216 
 12.76         218 
 12.78         241 
 12.8          222 
 12.82         211 
 12.84         173 
 12.86         201 
 12.88         221 
 12.9          210 
 12.92         244 
 12.94         215 
 12.96         217 
 12.98         225 
 13            205 
 13.02         200 
 13.04         215 
 13.06         225 
 13.08         186 
 13.1          229 
 13.12         213 
 13.14         201 
 13.16         200 
 13.18         215 
 13.2          201 
 13.22         203 
 13.24         199 
 13.26         195 
 13.28         201 
 13.3          218 
 13.32         214 
 13.34         197 
 13.36         191 
 13.38         217 
 13.4          198 
 13.42         178 
 13.44         198 
 13.46         197 
 13.48         202 
 13.5          201 
 13.52         203 
 13.54         172 
 13.56         183 
 13.58         191 
 13.6          194 
 13.62         205 
 13.64         194 
 13.66         189 
 13.68         225 
 13.7          198 
 13.72         171 
 13.74         183 
 13.76         207 
 13.78         192 
 13.8          199 
 13.82         194 
 13.84         176 
 13.86         169 
 13.88         174 
 13.9          194 
 13.92         189 
 13.94         190 
 13.96         182 
 13.98         202 
 14            189 
 14.02         202 
 14.04         205 
 14.06         186 
 14.08         175 
 14.1          183 
 14.12         166 
 14.14         188 
 14.16         185 
 14.18         189 
 14.2          179 
 14.22         190 
 14.24         189 
 14.26         176 
 14.28         167 
 14.3          189 
 14.32         181 
 14.34         208 
 14.36         188 
 14.38         155 
 14.4          179 
 14.42         175 
 14.44         186 
 14.46         171 
 14.48         166 
 14.5          173 
 14.52         170 
 14.54         207 
 14.56         160 
 14.58         178 
 14.6          174 
 14.62         175 
 14.64         156 
 14.66         177 
 14.68         169 
 14.7          186 
 14.72         167 
 14.74         165 
 14.76         164 
 14.78         157 
 14.8          161 
 14.82         177 
 14.84         163 
 14.86         182 
 14.88         139 
 14.9          175 
 14.92         169 
 14.94         157 
 14.96         176 
 14.98         147 
 15            165 
 15.02         187 
 15.04         158 
 15.06         170 
 15.08         153 
 15.1          171 
 15.12         161 
 15.14         158 
 15.16         166 
 15.18         148 
 15.2          166 
 15.22         164 
 15.24         178 
 15.26         153 
 15.28         147 
 15.3          154 
 15.32         133 
 15.34         149 
 15.36         130 
 15.38         141 
 15.4          140 
 15.42         177 
 15.44         152 
 15.46         133 
 15.48         175 
 15.5          135 
 15.52         186 
 15.54         143 
 15.56         172 
 15.58         145 
 15.6          152 
 15.62         134 
 15.64         167 
 15.66         145 
 15.68         155 
 15.7          149 
 15.72         140 
 15.74         137 
 15.76         149 
 15.78         145 
 15.8          153 
 15.82         149 
 15.84         138 
 15.86         152 
 15.88         122 
 15.9          138 
 15.92         151 
 15.94         148 
 15.96         170 
 15.98         154 
 16            136 
 16.02         160 
 16.04         143 
 16.06         146 
 16.08         145 
 16.1          141 
 16.12         173 
 16.14         148 
 16.16         136 
 16.18         140 
 16.2          149 
 16.22         137 
 16.24         152 
 16.26         160 
 16.28         169 
 16.3          159 
 16.32         143 
 16.34         142 
 16.36         145 
 16.38         153 
 16.4          130 
 16.42         163 
 16.44         121 
 16.46         138 
 16.48         126 
 16.5          141 
 16.52         136 
 16.54         143 
 16.56         136 
 16.58         122 
 16.6          164 
 16.62         155 
 16.64         130 
 16.66         128 
 16.68         124 
 16.7          149 
 16.72         133 
 16.74         133 
 16.76         129 
 16.78         148 
 16.8          147 
 16.82         146 
 16.84         140 
 16.86         146 
 16.88         132 
 16.9          129 
 16.92         130 
 16.94         129 
 16.96         130 
 16.98         119 
 17            133 
 17.02         132 
 17.04         133 
 17.06         126 
 17.08         143 
 17.1          115 
 17.12         146 
 17.14         135 
 17.16         139 
 17.18         142 
 17.2          133 
 17.22         129 
 17.24         129 
 17.26         110 
 17.28         146 
 17.3          108 
 17.32         117 
 17.34         111 
 17.36         145 
 17.38         121 
 17.4          120 
 17.42         126 
 17.44         140 
 17.46         138 
 17.48         119 
 17.5          116 
 17.52         133 
 17.54         140 
 17.56         111 
 17.58         113 
 17.6          125 
 17.62         135 
 17.64         116 
 17.66         110 
 17.68         121 
 17.7          114 
 17.72         122 
 17.74         116 
 17.76         134 
 17.78         142 
 17.8          134 
 17.82         140 
 17.84         148 
 17.86         160 
 17.88         143 
 17.9          165 
 17.92         169 
 17.94         186 
 17.96         217 
 17.98         228 
 18            276 
 18.02         319 
 18.04         308 
 18.06         326 
 18.08         293 
 18.1          256 
 18.12         228 
 18.14         200 
 18.16         169 
 18.18         153 
 18.2          131 
 18.22         147 
 18.24         134 
 18.26         135 
 18.28         125 
 18.3          127 
 18.32         124 
 18.34         127 
 18.36         135 
 18.38         118 
 18.4          124 
 18.42         115 
 18.44         125 
 18.46         103 
 18.48         116 
 18.5          125 
 18.52         109 
 18.54         112 
 18.56         111 
 18.58         117 
 18.6          120 
 18.62         118 
 18.64         123 
 18.66         99 
 18.68         124 
 18.7          92 
 18.72         114 
 18.74         112 
 18.76         83 
 18.78         126 
 18.8          120 
 18.82         99 
 18.84         99 
 18.86         114 
 18.88         100 
 18.9          119 
 18.92         117 
 18.94         114 
 18.96         134 
 18.98         114 
 19            97 
 19.02         124 
 19.04         103 
 19.06         110 
 19.08         106 
 19.1          106 
 19.12         91 
 19.14         107 
 19.16         96 
 19.18         107 
 19.2          108 
 19.22         107 
 19.24         105 
 19.26         103 
 19.28         79 
 19.3          115 
 19.32         110 
 19.34         108 
 19.36         108 
 19.38         102 
 19.4          92 
 19.42         113 
 19.44         92 
 19.46         101 
 19.48         125 
 19.5          127 
 19.52         107 
 19.54         120 
 19.56         116 
 19.58         107 
 19.6          115 
 19.62         97 
 19.64         99 
 19.66         101 
 19.68         124 
 19.7          101 
 19.72         102 
 19.74         124 
 19.76         100 
 19.78         118 
 19.8          87 
 19.82         92 
 19.84         97 
 19.86         107 
 19.88         107 
 19.9          119 
 19.92         81 
 19.94         98 
 19.96         104 
 19.98         97 
 20            103 
 20.02         90 
 20.04         82 
 20.06         97 
 20.08         101 
 20.1          104 
 20.12         97 
 20.14         94 
 20.16         86 
 20.18         99 
 20.2          120 
 20.22         99 
 20.24         90 
 20.26         111 
 20.28         96 
 20.3          88 
 20.32         92 
 20.34         97 
 20.36         95 
 20.38         77 
 20.4          89 
 20.42         95 
 20.44         102 
 20.46         88 
 20.48         90 
 20.5          86 
 20.52         90 
 20.54         108 
 20.56         108 
 20.58         108 
 20.6          75 
 20.62         84 
 20.64         110 
 20.66         95 
 20.68         96 
 20.7          85 
 20.72         115 
 20.74         82 
 20.76         86 
 20.78         101 
 20.8          92 
 20.82         93 
 20.84         88 
 20.86         99 
 20.88         103 
 20.9          107 
 20.92         93 
 20.94         87 
 20.96         97 
 20.98         88 
 21            77 
 21.02         74 
 21.04         94 
 21.06         102 
 21.08         95 
 21.1          88 
 21.12         96 
 21.14         99 
 21.16         90 
 21.18         86 
 21.2          80 
 21.22         93 
 21.24         95 
 21.26         105 
 21.28         97 
 21.3          81 
 21.32         77 
 21.34         94 
 21.36         79 
 21.38         84 
 21.4          98 
 21.42         88 
 21.44         94 
 21.46         95 
 21.48         86 
 21.5          82 
 21.52         73 
 21.54         89 
 21.56         92 
 21.58         95 
 21.6          95 
 21.62         83 
 21.64         111 
 21.66         80 
 21.68         95 
 21.7          87 
 21.72         67 
 21.74         83 
 21.76         98 
 21.78         83 
 21.8          86 
 21.82         66 
 21.84         83 
 21.86         80 
 21.88         74 
 21.9          93 
 21.92         91 
 21.94         95 
 21.96         96 
 21.98         98 
 22            92 
 22.02         66 
 22.04         94 
 22.06         76 
 22.08         72 
 22.1          92 
 22.12         85 
 22.14         78 
 22.16         76 
 22.18         69 
 22.2          70 
 22.22         66 
 22.24         82 
 22.26         77 
 22.28         82 
 22.3          89 
 22.32         80 
 22.34         76 
 22.36         74 
 22.38         80 
 22.4          83 
 22.42         83 
 22.44         82 
 22.46         69 
 22.48         62 
 22.5          95 
 22.52         74 
 22.54         82 
 22.56         79 
 22.58         72 
 22.6          89 
 22.62         75 
 22.64         84 
 22.66         68 
 22.68         67 
 22.7          76 
 22.72         68 
 22.74         63 
 22.76         80 
 22.78         86 
 22.8          73 
 22.82         73 
 22.84         88 
 22.86         67 
 22.88         78 
 22.9          82 
 22.92         83 
 22.94         78 
 22.96         72 
 22.98         68 
 23            80 
 23.02         76 
 23.04         84 
 23.06         92 
 23.08         74 
 23.1          73 
 23.12         79 
 23.14         91 
 23.16         84 
 23.18         72 
 23.2          70 
 23.22         65 
 23.24         74 
 23.26         77 
 23.28         82 
 23.3          65 
 23.32         63 
 23.34         74 
 23.36         73 
 23.38         79 
 23.4          61 
 23.42         63 
 23.44         52 
 23.46         67 
 23.48         58 
 23.5          71 
 23.52         75 
 23.54         65 
 23.56         60 
 23.58         77 
 23.6          62 
 23.62         77 
 23.64         60 
 23.66         58 
 23.68         67 
 23.7          76 
 23.72         74 
 23.74         76 
 23.76         59 
 23.78         60 
 23.8          65 
 23.82         62 
 23.84         78 
 23.86         55 
 23.88         59 
 23.9          69 
 23.92         75 
 23.94         59 
 23.96         77 
 23.98         78 
 24            60 
 24.02         66 
 24.04         72 
 24.06         68 
 24.08         56 
 24.1          62 
 24.12         81 
 24.14         77 
 24.16         52 
 24.18         57 
 24.2          59 
 24.22         65 
 24.24         53 
 24.26         78 
 24.28         59 
 24.3          52 
 24.32         67 
 24.34         64 
 24.36         63 
 24.38         68 
 24.4          77 
 24.42         70 
 24.44         88 
 24.46         63 
 24.48         50 
 24.5          60 
 24.52         53 
 24.54         67 
 24.56         78 
 24.58         66 
 24.6          69 
 24.62         63 
 24.64         56 
 24.66         73 
 24.68         83 
 24.7          61 
 24.72         79 
 24.74         68 
 24.76         80 
 24.78         63 
 24.8          73 
 24.82         63 
 24.84         71 
 24.86         55 
 24.88         53 
 24.9          76 
 24.92         56 
 24.94         83 
 24.96         69 
 24.98         77 
 25            54 
 25.02         66 
 25.04         66 
 25.06         69 
 25.08         74 
 25.1          59 
 25.12         51 
 25.14         57 
 25.16         63 
 25.18         72 
 25.2          57 
 25.22         70 
 25.24         64 
 25.26         60 
 25.28         62 
 25.3          72 
 25.32         51 
 25.34         57 
 25.36         59 
 25.38         60 
 25.4          67 
 25.42         51 
 25.44         60 
 25.46         54 
 25.48         54 
 25.5          77 
 25.52         50 
 25.54         44 
 25.56         66 
 25.58         67 
 25.6          59 
 25.62         75 
 25.64         59 
 25.66         41 
 25.68         64 
 25.7          63 
 25.72         71 
 25.74         59 
 25.76         54 
 25.78         61 
 25.8          62 
 25.82         56 
 25.84         59 
 25.86         54 
 25.88         48 
 25.9          46 
 25.92         47 
 25.94         61 
 25.96         59 
 25.98         51 
 26            51 
 26.02         59 
 26.04         55 
 26.06         65 
 26.08         62 
 26.1          66 
 26.12         68 
 26.14         55 
 26.16         72 
 26.18         69 
 26.2          55 
 26.22         64 
 26.24         69 
 26.26         58 
 26.28         52 
 26.3          55 
 26.32         57 
 26.34         61 
 26.36         59 
 26.38         67 
 26.4          64 
 26.42         57 
 26.44         64 
 26.46         50 
 26.48         61 
 26.5          61 
 26.52         55 
 26.54         55 
 26.56         57 
 26.58         67 
 26.6          54 
 26.62         65 
 26.64         64 
 26.66         46 
 26.68         66 
 26.7          49 
 26.72         56 
 26.74         57 
 26.76         56 
 26.78         52 
 26.8          46 
 26.82         64 
 26.84         39 
 26.86         41 
 26.88         51 
 26.9          61 
 26.92         54 
 26.94         51 
 26.96         44 
 26.98         54 
 27            53 
 27.02         56 
 27.04         60 
 27.06         43 
 27.08         50 
 27.1          59 
 27.12         51 
 27.14         62 
 27.16         50 
 27.18         49 
 27.2          32 
 27.22         61 
 27.24         45 
 27.26         54 
 27.28         56 
 27.3          60 
 27.32         68 
 27.34         48 
 27.36         60 
 27.38         54 
 27.4          51 
 27.42         51 
 27.44         60 
 27.46         52 
 27.48         48 
 27.5          38 
 27.52         39 
 27.54         55 
 27.56         36 
 27.58         53 
 27.6          53 
 27.62         56 
 27.64         43 
 27.66         46 
 27.68         51 
 27.7          48 
 27.72         47 
 27.74         48 
 27.76         51 
 27.78         62 
 27.8          49 
 27.82         56 
 27.84         54 
 27.86         52 
 27.88         46 
 27.9          58 
 27.92         53 
 27.94         59 
 27.96         58 
 27.98         50 
 28            50 
 28.02         59 
 28.04         63 
 28.06         59 
 28.08         62 
 28.1          65 
 28.12         54 
 28.14         62 
 28.16         48 
 28.18         50 
 28.2          46 
 28.22         59 
 28.24         66 
 28.26         43 
 28.28         49 
 28.3          51 
 28.32         54 
 28.34         45 
 28.36         61 
 28.38         46 
 28.4          45 
 28.42         50 
 28.44         52 
 28.46         45 
 28.48         40 
 28.5          50 
 28.52         55 
 28.54         51 
 28.56         43 
 28.58         42 
 28.6          40 
 28.62         45 
 28.64         44 
 28.66         53 
 28.68         59 
 28.7          54 
 28.72         47 
 28.74         58 
 28.76         45 
 28.78         47 
 28.8          54 
 28.82         44 
 28.84         51 
 28.86         37 
 28.88         58 
 28.9          60 
 28.92         53 
 28.94         64 
 28.96         60 
 28.98         61 
 29            62 
 29.02         59 
 29.04         47 
 29.06         48 
 29.08         55 
 29.1          75 
 29.12         51 
 29.14         59 
 29.16         54 
 29.18         54 
 29.2          46 
 29.22         65 
 29.24         66 
 29.26         54 
 29.28         61 
 29.3          63 
 29.32         63 
 29.34         74 
 29.36         83 
 29.38         89 
 29.4          83 
 29.42         106 
 29.44         135 
 29.46         146 
 29.48         131 
 29.5          158 
 29.52         197 
 29.54         205 
 29.56         224 
 29.58         246 
 29.6          269 
 29.62         316 
 29.64         366 
 29.66         354 
 29.68         381 
 29.7          420 
 29.72         406 
 29.74         398 
 29.76         428 
 29.78         419 
 29.8          420 
 29.82         399 
 29.84         337 
 29.86         316 
 29.88         315 
 29.9          254 
 29.92         248 
 29.94         214 
 29.96         188 
 29.98         163 
 30            175 
 30.02         156 
 30.04         121 
 30.06         124 
 30.08         117 
 30.1          104 
 30.12         113 
 30.14         118 
 30.16         109 
 30.18         101 
 30.2          106 
 30.22         97 
 30.24         80 
 30.26         79 
 30.28         72 
 30.3          64 
 30.32         72 
 30.34         63 
 30.36         64 
 30.38         57 
 30.4          61 
 30.42         77 
 30.44         51 
 30.46         53 
 30.48         52 
 30.5          69 
 30.52         58 
 30.54         51 
 30.56         48 
 30.58         48 
 30.6          46 
 30.62         62 
 30.64         56 
 30.66         62 
 30.68         44 
 30.7          49 
 30.72         44 
 30.74         36 
 30.76         45 
 30.78         49 
 30.8          51 
 30.82         42 
 30.84         32 
 30.86         36 
 30.88         45 
 30.9          49 
 30.92         44 
 30.94         52 
 30.96         42 
 30.98         51 
 31            49 
 31.02         49 
 31.04         45 
 31.06         46 
 31.08         51 
 31.1          38 
 31.12         49 
 31.14         46 
 31.16         53 
 31.18         42 
 31.2          39 
 31.22         52 
 31.24         55 
 31.26         55 
 31.28         54 
 31.3          50 
 31.32         54 
 31.34         51 
 31.36         41 
 31.38         59 
 31.4          44 
 31.42         46 
 31.44         46 
 31.46         50 
 31.48         55 
 31.5          36 
 31.52         41 
 31.54         40 
 31.56         39 
 31.58         43 
 31.6          37 
 31.62         47 
 31.64         41 
 31.66         48 
 31.68         42 
 31.7          42 
 31.72         37 
 31.74         28 
 31.76         34 
 31.78         49 
 31.8          40 
 31.82         44 
 31.84         33 
 31.86         42 
 31.88         38 
 31.9          47 
 31.92         37 
 31.94         30 
 31.96         37 
 31.98         33 
 32            46 
 32.02         38 
 32.04         32 
 32.06         54 
 32.08         48 
 32.1          55 
 32.12         38 
 32.14         53 
 32.16         36 
 32.18         42 
 32.2          52 
 32.22         31 
 32.24         30 
 32.26         41 
 32.28         44 
 32.3          34 
 32.32         35 
 32.34         43 
 32.36         41 
 32.38         50 
 32.4          53 
 32.42         37 
 32.44         42 
 32.46         39 
 32.48         27 
 32.5          47 
 32.52         45 
 32.54         61 
 32.56         40 
 32.58         39 
 32.6          41 
 32.62         51 
 32.64         43 
 32.66         37 
 32.68         40 
 32.7          39 
 32.72         57 
 32.74         44 
 32.76         55 
 32.78         40 
 32.8          57 
 32.82         48 
 32.84         46 
 32.86         60 
 32.88         50 
 32.9          53 
 32.92         48 
 32.94         48 
 32.96         41 
 32.98         40 
 33            47 
 33.02         47 
 33.04         43 
 33.06         55 
 33.08         49 
 33.1          31 
 33.12         51 
 33.14         47 
 33.16         42 
 33.18         41 
 33.2          48 
 33.22         46 
 33.24         39 
 33.26         55 
 33.28         48 
 33.3          45 
 33.32         41 
 33.34         50 
 33.36         42 
 33.38         51 
 33.4          48 
 33.42         41 
 33.44         40 
 33.46         48 
 33.48         44 
 33.5          52 
 33.52         52 
 33.54         34 
 33.56         52 
 33.58         47 
 33.6          44 
 33.62         53 
 33.64         50 
 33.66         48 
 33.68         43 
 33.7          38 
 33.72         53 
 33.74         61 
 33.76         55 
 33.78         37 
 33.8          49 
 33.82         53 
 33.84         61 
 33.86         74 
 33.88         64 
 33.9          59 
 33.92         68 
 33.94         73 
 33.96         77 
 33.98         79 
 34            75 
 34.02         88 
 34.04         87 
 34.06         95 
 34.08         96 
 34.1          107 
 34.12         118 
 34.14         108 
 34.16         122 
 34.18         112 
 34.2          139 
 34.22         147 
 34.24         148 
 34.26         151 
 34.28         165 
 34.3          171 
 34.32         182 
 34.34         208 
 34.36         217 
 34.38         211 
 34.4          226 
 34.42         206 
 34.44         234 
 34.46         225 
 34.48         248 
 34.5          257 
 34.52         258 
 34.54         272 
 34.56         277 
 34.58         293 
 34.6          300 
 34.62         278 
 34.64         294 
 34.66         321 
 34.68         330 
 34.7          337 
 34.72         365 
 34.74         359 
 34.76         387 
 34.78         393 
 34.8          419 
 34.82         426 
 34.84         487 
 34.86         490 
 34.88         459 
 34.9          532 
 34.92         579 
 34.94         632 
 34.96         708 
 34.98         734 
 35            776 
 35.02         837 
 35.04         833 
 35.06         980 
 35.08         943 
 35.1          997 
 35.12         955 
 35.14         990 
 35.16         1007 
 35.18         958 
 35.2          906 
 35.22         970 
 35.24         829 
 35.26         780 
 35.28         748 
 35.3          655 
 35.32         662 
 35.34         592 
 35.36         580 
 35.38         519 
 35.4          514 
 35.42         443 
 35.44         446 
 35.46         352 
 35.48         338 
 35.5          311 
 35.52         275 
 35.54         260 
 35.56         211 
 35.58         217 
 35.6          220 
 35.62         183 
 35.64         168 
 35.66         141 
 35.68         124 
 35.7          121 
 35.72         125 
 35.74         109 
 35.76         100 
 35.78         84 
 35.8          102 
 35.82         69 
 35.84         76 
 35.86         64 
 35.88         75 
 35.9          66 
 35.92         64 
 35.94         63 
 35.96         64 
 35.98         63 
 36            53 
 36.02         55 
 36.04         52 
 36.06         37 
 36.08         44 
 36.1          42 
 36.12         40 
 36.14         36 
 36.16         33 
 36.18         51 
 36.2          40 
 36.22         40 
 36.24         48 
 36.26         47 
 36.28         42 
 36.3          31 
 36.32         43 
 36.34         50 
 36.36         57 
 36.38         54 
 36.4          42 
 36.42         43 
 36.44         56 
 36.46         51 
 36.48         63 
 36.5          74 
 36.52         67 
 36.54         77 
 36.56         98 
 36.58         99 
 36.6          107 
 36.62         143 
 36.64         162 
 36.66         178 
 36.68         183 
 36.7          243 
 36.72         228 
 36.74         228 
 36.76         211 
 36.78         199 
 36.8          155 
 36.82         185 
 36.84         137 
 36.86         140 
 36.88         143 
 36.9          109 
 36.92         107 
 36.94         104 
 36.96         108 
 36.98         138 
 37            159 
 37.02         175 
 37.04         190 
 37.06         189 
 37.08         232 
 37.1          248 
 37.12         249 
 37.14         229 
 37.16         229 
 37.18         216 
 37.2          205 
 37.22         179 
 37.24         156 
 37.26         121 
 37.28         107 
 37.3          100 
 37.32         82 
 37.34         80 
 37.36         64 
 37.38         58 
 37.4          65 
 37.42         38 
 37.44         41 
 37.46         40 
 37.48         46 
 37.5          31 
 37.52         38 
 37.54         38 
 37.56         33 
 37.58         31 
 37.6          43 
 37.62         33 
 37.64         33 
 37.66         30 
 37.68         43 
 37.7          34 
 37.72         32 
 37.74         36 
 37.76         35 
 37.78         33 
 37.8          25 
 37.82         29 
 37.84         23 
 37.86         44 
 37.88         32 
 37.9          25 
 37.92         33 
 37.94         27 
 37.96         34 
 37.98         31 
 38            32 
 38.02         26 
 38.04         32 
 38.06         31 
 38.08         35 
 38.1          35 
 38.12         28 
 38.14         31 
 38.16         33 
 38.18         36 
 38.2          33 
 38.22         30 
 38.24         31 
 38.26         27 
 38.28         33 
 38.3          31 
 38.32         43 
 38.34         35 
 38.36         35 
 38.38         42 
 38.4          34 
 38.42         34 
 38.44         32 
 38.46         27 
 38.48         22 
 38.5          31 
 38.52         30 
 38.54         36 
 38.56         34 
 38.58         23 
 38.6          37 
 38.62         24 
 38.64         32 
 38.66         32 
 38.68         28 
 38.7          28 
 38.72         22 
 38.74         36 
 38.76         37 
 38.78         23 
 38.8          28 
 38.82         33 
 38.84         38 
 38.86         30 
 38.88         37 
 38.9          25 
 38.92         22 
 38.94         22 
 38.96         25 
 38.98         27 
 39            25 
 39.02         25 
 39.04         29 
 39.06         28 
 39.08         21 
 39.1          23 
 39.12         41 
 39.14         30 
 39.16         24 
 39.18         29 
 39.2          27 
 39.22         27 
 39.24         33 
 39.26         25 
 39.28         25 
 39.3          31 
 39.32         19 
 39.34         23 
 39.36         36 
 39.38         25 
 39.4          19 
 39.42         31 
 39.44         23 
 39.46         25 
 39.48         30 
 39.5          33 
 39.52         21 
 39.54         28 
 39.56         34 
 39.58         31 
 39.6          34 
 39.62         23 
 39.64         34 
 39.66         31 
 39.68         30 
 39.7          21 
 39.72         18 
 39.74         29 
 39.76         22 
 39.78         36 
 39.8          22 
 39.82         26 
 39.84         22 
 39.86         40 
 39.88         30 
 39.9          24 
 39.92         25 
 39.94         24 
 39.96         24 
 39.98         34 
 40            25 
 40.02         21 
 40.04         36 
 40.06         17 
 40.08         29 
 40.1          18 
 40.12         26 
 40.14         23 
 40.16         29 
 40.18         35 
 40.2          28 
 40.22         40 
 40.24         31 
 40.26         20 
 40.28         28 
 40.3          22 
 40.32         27 
 40.34         31 
 40.36         26 
 40.38         32 
 40.4          33 
 40.42         35 
 40.44         23 
 40.46         31 
 40.48         25 
 40.5          35 
 40.52         33 
 40.54         23 
 40.56         31 
 40.58         29 
 40.6          24 
 40.62         36 
 40.64         44 
 40.66         30 
 40.68         35 
 40.7          33 
 40.72         30 
 40.74         37 
 40.76         37 
 40.78         20 
 40.8          28 
 40.82         31 
 40.84         29 
 40.86         25 
 40.88         41 
 40.9          36 
 40.92         29 
 40.94         46 
 40.96         36 
 40.98         30 
 41            36 
 41.02         35 
 41.04         34 
 41.06         46 
 41.08         30 
 41.1          41 
 41.12         45 
 41.14         48 
 41.16         38 
 41.18         48 
 41.2          42 
 41.22         47 
 41.24         50 
 41.26         53 
 41.28         54 
 41.3          47 
 41.32         53 
 41.34         47 
 41.36         47 
 41.38         56 
 41.4          55 
 41.42         54 
 41.44         49 
 41.46         53 
 41.48         59 
 41.5          52 
 41.52         56 
 41.54         65 
 41.56         65 
 41.58         63 
 41.6          67 
 41.62         63 
 41.64         69 
 41.66         53 
 41.68         79 
 41.7          65 
 41.72         71 
 41.74         67 
 41.76         70 
 41.78         65 
 41.8          88 
 41.82         77 
 41.84         86 
 41.86         70 
 41.88         69 
 41.9          76 
 41.92         68 
 41.94         87 
 41.96         86 
 41.98         75 
 42            86 
 42.02         90 
 42.04         82 
 42.06         65 
 42.08         90 
 42.1          88 
 42.12         94 
 42.14         78 
 42.16         81 
 42.18         112 
 42.2          93 
 42.22         92 
 42.24         82 
 42.26         103 
 42.28         91 
 42.3          106 
 42.32         113 
 42.34         107 
 42.36         121 
 42.38         140 
 42.4          123 
 42.42         147 
 42.44         157 
 42.46         161 
 42.48         152 
 42.5          156 
 42.52         130 
 42.54         183 
 42.56         204 
 42.58         191 
 42.6          204 
 42.62         217 
 42.64         225 
 42.66         237 
 42.68         230 
 42.7          227 
 42.72         270 
 42.74         272 
 42.76         256 
 42.78         215 
 42.8          257 
 42.82         228 
 42.84         250 
 42.86         266 
 42.88         232 
 42.9          295 
 42.92         230 
 42.94         279 
 42.96         273 
 42.98         288 
 43            284 
 43.02         361 
 43.04         377 
 43.06         396 
 43.08         441 
 43.1          473 
 43.12         543 
 43.14         506 
 43.16         477 
 43.18         467 
 43.2          479 
 43.22         428 
 43.24         402 
 43.26         347 
 43.28         344 
 43.3          280 
 43.32         281 
 43.34         210 
 43.36         191 
 43.38         164 
 43.4          169 
 43.42         119 
 43.44         125 
 43.46         111 
 43.48         80 
 43.5          84 
 43.52         85 
 43.54         67 
 43.56         65 
 43.58         58 
 43.6          50 
 43.62         54 
 43.64         51 
 43.66         47 
 43.68         37 
 43.7          32 
 43.72         36 
 43.74         49 
 43.76         32 
 43.78         37 
 43.8          38 
 43.82         28 
 43.84         37 
 43.86         25 
 43.88         49 
 43.9          38 
 43.92         31 
 43.94         43 
 43.96         27 
 43.98         39 
 44            29 
 44.02         28 
 44.04         27 
 44.06         21 
 44.08         31 
 44.1          20 
 44.12         27 
 44.14         18 
 44.16         22 
 44.18         29 
 44.2          21 
 44.22         26 
 44.24         26 
 44.26         34 
 44.28         30 
 44.3          27 
 44.32         31 
 44.34         29 
 44.36         24 
 44.38         33 
 44.4          30 
 44.42         34 
 44.44         28 
 44.46         21 
 44.48         19 
 44.5          25 
 44.52         23 
 44.54         25 
 44.56         20 
 44.58         21 
 44.6          25 
 44.62         31 
 44.64         30 
 44.66         27 
 44.68         22 
 44.7          23 
 44.72         23 
 44.74         15 
 44.76         26 
 44.78         23 
 44.8          22 
 44.82         18 
 44.84         32 
 44.86         27 
 44.88         32 
 44.9          18 
 44.92         18 
 44.94         22 
 44.96         22 
 44.98         18 
 45            21 
 45.02         25 
 45.04         27 
 45.06         31 
 45.08         22 
 45.1          27 
 45.12         28 
 45.14         23 
 45.16         16 
 45.18         23 
 45.2          31 
 45.22         21 
 45.24         30 
 45.26         16 
 45.28         31 
 45.3          24 
 45.32         29 
 45.34         19 
 45.36         19 
 45.38         25 
 45.4          20 
 45.42         19 
 45.44         23 
 45.46         26 
 45.48         25 
 45.5          20 
 45.52         23 
 45.54         17 
 45.56         29 
 45.58         29 
 45.6          27 
 45.62         21 
 45.64         27 
 45.66         21 
 45.68         28 
 45.7          25 
 45.72         32 
 45.74         23 
 45.76         18 
 45.78         25 
 45.8          20 
 45.82         28 
 45.84         22 
 45.86         15 
 45.88         19 
 45.9          30 
 45.92         19 
 45.94         20 
 45.96         27 
 45.98         16 
 46            24 
 46.02         26 
 46.04         26 
 46.06         37 
 46.08         25 
 46.1          18 
 46.12         18 
 46.14         27 
 46.16         21 
 46.18         11 
 46.2          25 
 46.22         22 
 46.24         26 
 46.26         19 
 46.28         15 
 46.3          24 
 46.32         17 
 46.34         24 
 46.36         24 
 46.38         18 
 46.4          19 
 46.42         17 
 46.44         27 
 46.46         34 
 46.48         26 
 46.5          26 
 46.52         26 
 46.54         21 
 46.56         22 
 46.58         26 
 46.6          23 
 46.62         24 
 46.64         23 
 46.66         25 
 46.68         23 
 46.7          29 
 46.72         28 
 46.74         26 
 46.76         25 
 46.78         21 
 46.8          19 
 46.82         31 
 46.84         28 
 46.86         29 
 46.88         19 
 46.9          22 
 46.92         33 
 46.94         33 
 46.96         26 
 46.98         29 
 47            23 
 47.02         28 
 47.04         37 
 47.06         22 
 47.08         21 
 47.1          27 
 47.12         23 
 47.14         27 
 47.16         28 
 47.18         33 
 47.2          25 
 47.22         25 
 47.24         25 
 47.26         23 
 47.28         17 
 47.3          27 
 47.32         25 
 47.34         23 
 47.36         29 
 47.38         28 
 47.4          20 
 47.42         22 
 47.44         23 
 47.46         22 
 47.48         23 
 47.5          23 
 47.52         23 
 47.54         27 
 47.56         28 
 47.58         16 
 47.6          33 
 47.62         30 
 47.64         23 
 47.66         19 
 47.68         23 
 47.7          23 
 47.72         18 
 47.74         16 
 47.76         27 
 47.78         24 
 47.8          29 
 47.82         12 
 47.84         23 
 47.86         29 
 47.88         23 
 47.9          28 
 47.92         20 
 47.94         22 
 47.96         28 
 47.98         21 
 48            19 
 48.02         21 
 48.04         32 
 48.06         26 
 48.08         28 
 48.1          18 
 48.12         24 
 48.14         21 
 48.16         26 
 48.18         15 
 48.2          29 
 48.22         14 
 48.24         21 
 48.26         23 
 48.28         24 
 48.3          17 
 48.32         14 
 48.34         26 
 48.36         19 
 48.38         27 
 48.4          23 
 48.42         23 
 48.44         27 
 48.46         17 
 48.48         10 
 48.5          25 
 48.52         16 
 48.54         19 
 48.56         29 
 48.58         20 
 48.6          22 
 48.62         21 
 48.64         22 
 48.66         26 
 48.68         24 
 48.7          11 
 48.72         26 
 48.74         16 
 48.76         25 
 48.78         19 
 48.8          20 
 48.82         22 
 48.84         17 
 48.86         22 
 48.88         30 
 48.9          20 
 48.92         16 
 48.94         25 
 48.96         16 
 48.98         18 
 49            24 
 49.02         21 
 49.04         18 
 49.06         18 
 49.08         26 
 49.1          24 
 49.12         31 
 49.14         19 
 49.16         33 
 49.18         32 
 49.2          21 
 49.22         30 
 49.24         24 
 49.26         20 
 49.28         22 
 49.3          32 
 49.32         20 
 49.34         21 
 49.36         26 
 49.38         18 
 49.4          25 
 49.42         27 
 49.44         26 
 49.46         24 
 49.48         34 
 49.5          28 
 49.52         27 
 49.54         18 
 49.56         23 
 49.58         17 
 49.6          20 
 49.62         25 
 49.64         24 
 49.66         21 
 49.68         22 
 49.7          27 
 49.72         25 
 49.74         27 
 49.76         37 
 49.78         30 
 49.8          26 
 49.82         20 
 49.84         33 
 49.86         25 
 49.88         28 
 49.9          35 
 49.92         36 
 49.94         27 
 49.96         33 
 49.98         32 
 50            28 
 50.02         31 
 50.04         40 
 50.06         33 
 50.08         31 
 50.1          39 
 50.12         49 
 50.14         37 
 50.16         43 
 50.18         42 
 50.2          45 
 50.22         42 
 50.24         27 
 50.26         40 
 50.28         31 
 50.3          33 
 50.32         32 
 50.34         32 
 50.36         33 
 50.38         43 
 50.4          31 
 50.42         35 
 50.44         38 
 50.46         30 
 50.48         30 
 50.5          35 
 50.52         22 
 50.54         30 
 50.56         40 
 50.58         24 
 50.6          38 
 50.62         22 
 50.64         26 
 50.66         16 
 50.68         37 
 50.7          30 
 50.72         21 
 50.74         22 
 50.76         28 
 50.78         22 
 50.8          21 
 50.82         20 
 50.84         27 
 50.86         18 
 50.88         20 
 50.9          29 
 50.92         25 
 50.94         26 
 50.96         26 
 50.98         24 
 51            28 
 51.02         30 
 51.04         22 
 51.06         25 
 51.08         16 
 51.1          27 
 51.12         23 
 51.14         23 
 51.16         22 
 51.18         19 
 51.2          28 
 51.22         29 
 51.24         30 
 51.26         32 
 51.28         22 
 51.3          27 
 51.32         19 
 51.34         21 
 51.36         24 
 51.38         21 
 51.4          25 
 51.42         21 
 51.44         20 
 51.46         26 
 51.48         23 
 51.5          18 
 51.52         19 
 51.54         18 
 51.56         25 
 51.58         29 
 51.6          17 
 51.62         20 
 51.64         26 
 51.66         24 
 51.68         28 
 51.7          29 
 51.72         18 
 51.74         28 
 51.76         20 
 51.78         33 
 51.8          23 
 51.82         36 
 51.84         31 
 51.86         26 
 51.88         26 
 51.9          25 
 51.92         33 
 51.94         36 
 51.96         29 
 51.98         30 
 52            25 
 52.02         33 
 52.04         27 
 52.06         22 
 52.08         26 
 52.1          34 
 52.12         40 
 52.14         29 
 52.16         39 
 52.18         31 
 52.2          39 
 52.22         39 
 52.24         45 
 52.26         27 
 52.28         43 
 52.3          36 
 52.32         40 
 52.34         48 
 52.36         50 
 52.38         52 
 52.4          44 
 52.42         40 
 52.44         46 
 52.46         63 
 52.48         63 
 52.5          43 
 52.52         52 
 52.54         45 
 52.56         45 
 52.58         50 
 52.6          46 
 52.62         58 
 52.64         42 
 52.66         57 
 52.68         51 
 52.7          57 
 52.72         58 
 52.74         55 
 52.76         67 
 52.78         47 
 52.8          62 
 52.82         61 
 52.84         73 
 52.86         87 
 52.88         86 
 52.9          100 
 52.92         95 
 52.94         94 
 52.96         110 
 52.98         103 
 53            109 
 53.02         109 
 53.04         126 
 53.06         126 
 53.08         126 
 53.1          112 
 53.12         119 
 53.14         132 
 53.16         107 
 53.18         110 
 53.2          102 
 53.22         95 
 53.24         98 
 53.26         108 
 53.28         112 
 53.3          95 
 53.32         99 
 53.34         71 
 53.36         71 
 53.38         73 
 53.4          72 
 53.42         59 
 53.44         62 
 53.46         69 
 53.48         65 
 53.5          67 
 53.52         49 
 53.54         52 
 53.56         41 
 53.58         39 
 53.6          35 
 53.62         42 
 53.64         48 
 53.66         33 
 53.68         36 
 53.7          46 
 53.72         26 
 53.74         34 
 53.76         42 
 53.78         24 
 53.8          20 
 53.82         29 
 53.84         42 
 53.86         31 
 53.88         30 
 53.9          39 
 53.92         27 
 53.94         36 
 53.96         39 
 53.98         27 
 54            26 
 54.02         35 
 54.04         36 
 54.06         28 
 54.08         41 
 54.1          28 
 54.12         30 
 54.14         34 
 54.16         36 
 54.18         34 
 54.2          44 
 54.22         32 
 54.24         24 
 54.26         37 
 54.28         27 
 54.3          36 
 54.32         32 
 54.34         38 
 54.36         43 
 54.38         39 
 54.4          41 
 54.42         34 
 54.44         31 
 54.46         33 
 54.48         30 
 54.5          37 
 54.52         33 
 54.54         42 
 54.56         38 
 54.58         43 
 54.6          55 
 54.62         30 
 54.64         46 
 54.66         36 
 54.68         49 
 54.7          42 
 54.72         48 
 54.74         46 
 54.76         33 
 54.78         50 
 54.8          45 
 54.82         51 
 54.84         54 
 54.86         59 
 54.88         57 
 54.9          58 
 54.92         49 
 54.94         57 
 54.96         53 
 54.98         51 
 55            62 
 55.02         69 
 55.04         75 
 55.06         69 
 55.08         59 
 55.1          65 
 55.12         65 
 55.14         68 
 55.16         60 
 55.18         85 
 55.2          67 
 55.22         78 
 55.24         70 
 55.26         66 
 55.28         63 
 55.3          83 
 55.32         75 
 55.34         83 
 55.36         77 
 55.38         70 
 55.4          86 
 55.42         70 
 55.44         84 
 55.46         75 
 55.48         77 
 55.5          84 
 55.52         87 
 55.54         73 
 55.56         70 
 55.58         89 
 55.6          84 
 55.62         74 
 55.64         77 
 55.66         82 
 55.68         71 
 55.7          74 
 55.72         93 
 55.74         86 
 55.76         77 
 55.78         86 
 55.8          94 
 55.82         92 
 55.84         82 
 55.86         109 
 55.88         91 
 55.9          110 
 55.92         101 
 55.94         95 
 55.96         101 
 55.98         98 
 56            97 
 56.02         100 
 56.04         121 
 56.06         107 
 56.08         133 
 56.1          116 
 56.12         125 
 56.14         159 
 56.16         161 
 56.18         144 
 56.2          163 
 56.22         166 
 56.24         165 
 56.26         187 
 56.28         207 
 56.3          195 
 56.32         254 
 56.34         233 
 56.36         255 
 56.38         247 
 56.4          273 
 56.42         315 
 56.44         314 
 56.46         343 
 56.48         294 
 56.5          338 
 56.52         310 
 56.54         326 
 56.56         346 
 56.58         317 
 56.6          350 
 56.62         319 
 56.64         295 
 56.66         328 
 56.68         307 
 56.7          286 
 56.72         299 
 56.74         247 
 56.76         242 
 56.78         262 
 56.8          263 
 56.82         231 
 56.84         244 
 56.86         205 
 56.88         203 
 56.9          217 
 56.92         214 
 56.94         199 
 56.96         207 
 56.98         211 
 57            187 
 57.02         161 
 57.04         171 
 57.06         146 
 57.08         149 
 57.1          151 
 57.12         128 
 57.14         120 
 57.16         114 
 57.18         133 
 57.2          124 
 57.22         126 
 57.24         116 
 57.26         119 
 57.28         92 
 57.3          87 
 57.32         102 
 57.34         77 
 57.36         97 
 57.38         85 
 57.4          68 
 57.42         71 
 57.44         70 
 57.46         64 
 57.48         65 
 57.5          61 
 57.52         61 
 57.54         64 
 57.56         42 
 57.58         56 
 57.6          56 
 57.62         51 
 57.64         38 
 57.66         33 
 57.68         40 
 57.7          39 
 57.72         33 
 57.74         39 
 57.76         35 
 57.78         45 
 57.8          43 
 57.82         39 
 57.84         38 
 57.86         28 
 57.88         37 
 57.9          41 
 57.92         24 
 57.94         38 
 57.96         29 
 57.98         35 
 58            16 
 58.02         30 
 58.04         26 
 58.06         19 
 58.08         37 
 58.1          35 
 58.12         33 
 58.14         27 
 58.16         30 
 58.18         29 
 58.2          29 
 58.22         18 
 58.24         26 
 58.26         21 
 58.28         35 
 58.3          28 
 58.32         23 
 58.34         28 
 58.36         27 
 58.38         19 
 58.4          37 
 58.42         17 
 58.44         29 
 58.46         41 
 58.48         31 
 58.5          26 
 58.52         23 
 58.54         19 
 58.56         25 
 58.58         18 
 58.6          42 
 58.62         26 
 58.64         27 
 58.66         31 
 58.68         33 
 58.7          27 
 58.72         20 
 58.74         23 
 58.76         23 
 58.78         23 
 58.8          17 
 58.82         32 
 58.84         23 
 58.86         25 
 58.88         21 
 58.9          29 
 58.92         23 
 58.94         31 
 58.96         28 
 58.98         32 
 59            29 
 59.02         29 
 59.04         24 
 59.06         33 
 59.08         28 
 59.1          23 
 59.12         24 
 59.14         30 
 59.16         36 
 59.18         30 
 59.2          24 
 59.22         31 
 59.24         27 
 59.26         26 
 59.28         31 
 59.3          30 
 59.32         33 
 59.34         23 
 59.36         30 
 59.38         35 
 59.4          32 
 59.42         26 
 59.44         28 
 59.46         32 
 59.48         31 
 59.5          29 
 59.52         24 
 59.54         29 
 59.56         25 
 59.58         34 
 59.6          30 
 59.62         27 
 59.64         25 
 59.66         33 
 59.68         40 
 59.7          33 
 59.72         39 
 59.74         37 
 59.76         24 
 59.78         32 
 59.8          34 
 59.82         35 
 59.84         31 
 59.86         34 
 59.88         35 
 59.9          36 
 59.92         29 
 59.94         34 
 59.96         29 
 59.98         31 
 60            35 
 60.02         35 
 60.04         38 
 60.06         29 
 60.08         31 
 60.1          37 
 60.12         28 
 60.14         30 
 60.16         33 
 60.18         27 
 60.2          21 
 60.22         43 
 60.24         28 
 60.26         38 
 60.28         27 
 60.3          33 
 60.32         32 
 60.34         31 
 60.36         36 
 60.38         31 
 60.4          28 
 60.42         32 
 60.44         31 
 60.46         32 
 60.48         40 
 60.5          30 
 60.52         29 
 60.54         31 
 60.56         31 
 60.58         23 
 60.6          36 
 60.62         41 
 60.64         37 
 60.66         35 
 60.68         36 
 60.7          34 
 60.72         34 
 60.74         28 
 60.76         35 
 60.78         41 
 60.8          35 
 60.82         33 
 60.84         49 
 60.86         39 
 60.88         43 
 60.9          45 
 60.92         48 
 60.94         48 
 60.96         44 
 60.98         44 
 61            50 
 61.02         49 
 61.04         43 
 61.06         59 
 61.08         52 
 61.1          56 
 61.12         57 
 61.14         52 
 61.16         51 
 61.18         75 
 61.2          78 
 61.22         85 
 61.24         87 
 61.26         82 
 61.28         92 
 61.3          88 
 61.32         102 
 61.34         107 
 61.36         123 
 61.38         133 
 61.4          114 
 61.42         145 
 61.44         148 
 61.46         155 
 61.48         164 
 61.5          160 
 61.52         194 
 61.54         209 
 61.56         233 
 61.58         205 
 61.6          212 
 61.62         223 
 61.64         250 
 61.66         265 
 61.68         258 
 61.7          250 
 61.72         283 
 61.74         327 
 61.76         327 
 61.78         286 
 61.8          337 
 61.82         302 
 61.84         379 
 61.86         372 
 61.88         375 
 61.9          356 
 61.92         371 
 61.94         377 
 61.96         382 
 61.98         417 
 62            412 
 62.02         435 
 62.04         392 
 62.06         419 
 62.08         404 
 62.1          415 
 62.12         402 
 62.14         399 
 62.16         383 
 62.18         408 
 62.2          371 
 62.22         333 
 62.24         352 
 62.26         342 
 62.28         342 
 62.3          335 
 62.32         336 
 62.34         332 
 62.36         314 
 62.38         339 
 62.4          290 
 62.42         289 
 62.44         301 
 62.46         251 
 62.48         280 
 62.5          267 
 62.52         283 
 62.54         296 
 62.56         279 
 62.58         256 
 62.6          269 
 62.62         237 
 62.64         298 
 62.66         299 
 62.68         313 
 62.7          283 
 62.72         268 
 62.74         294 
 62.76         290 
 62.78         312 
 62.8          269 
 62.82         290 
 62.84         267 
 62.86         249 
 62.88         224 
 62.9          217 
 62.92         223 
 62.94         213 
 62.96         202 
 62.98         194 
 63            166 
 63.02         182 
 63.04         144 
 63.06         134 
 63.08         127 
 63.1          119 
 63.12         122 
 63.14         117 
 63.16         94 
 63.18         77 
 63.2          76 
 63.22         78 
 63.24         52 
 63.26         65 
 63.28         53 
 63.3          71 
 63.32         40 
 63.34         36 
 63.36         46 
 63.38         46 
 63.4          39 
 63.42         49 
 63.44         41 
 63.46         43 
 63.48         48 
 63.5          50 
 63.52         46 
 63.54         28 
 63.56         32 
 63.58         31 
 63.6          35 
 63.62         37 
 63.64         32 
 63.66         40 
 63.68         18 
 63.7          35 
 63.72         30 
 63.74         36 
 63.76         24 
 63.78         31 
 63.8          24 
 63.82         20 
 63.84         35 
 63.86         29 
 63.88         37 
 63.9          21 
 63.92         27 
 63.94         29 
 63.96         22 
 63.98         38 
 64            32 
 64.02         39 
 64.04         25 
 64.06         26 
 64.08         16 
 64.1          32 
 64.12         27 
 64.14         36 
 64.16         24 
 64.18         25 
 64.2          38 
 64.22         35 
 64.24         31 
 64.26         31 
 64.28         20 
 64.3          33 
 64.32         30 
 64.34         26 
 64.36         28 
 64.38         35 
 64.4          30 
 64.42         32 
 64.44         23 
 64.46         38 
 64.48         24 
 64.5          39 
 64.52         43 
 64.54         25 
 64.56         28 
 64.58         20 
 64.6          33 
 64.62         29 
 64.64         28 
 64.66         33 
 64.68         48 
 64.7          22 
 64.72         29 
 64.74         21 
 64.76         36 
 64.78         21 
 64.8          14 
 64.82         27 
 64.84         29 
 64.86         30 
 64.88         26 
 64.9          24 
 64.92         31 
 64.94         24 
 64.96         27 
 64.98         32 
 65            29 
 65.02         33 
 65.04         38 
 65.06         32 
 65.08         40 
 65.1          31 
 65.12         30 
 65.14         33 
 65.16         39 
 65.18         39 
 65.2          36 
 65.22         36 
 65.24         35 
 65.26         33 
 65.28         52 
 65.3          31 
 65.32         42 
 65.34         44 
 65.36         47 
 65.38         45 
 65.4          47 
 65.42         43 
 65.44         53 
 65.46         41 
 65.48         36 
 65.5          44 
 65.52         49 
 65.54         39 
 65.56         44 
 65.58         54 
 65.6          58 
 65.62         52 
 65.64         45 
 65.66         24 
 65.68         36 
 65.7          50 
 65.72         44 
 65.74         41 
 65.76         34 
 65.78         40 
 65.8          31 
 65.82         30 
 65.84         38 
 65.86         30 
 65.88         36 
 65.9          39 
 65.92         30 
 65.94         40 
 65.96         27 
 65.98         29 
 66            26 
 66.02         29 
 66.04         32 
 66.06         35 
 66.08         18 
 66.1          30 
 66.12         19 
 66.14         26 
 66.16         26 
 66.18         46 
 66.2          19 
 66.22         24 
 66.24         30 
 66.26         25 
 66.28         21 
 66.3          24 
 66.32         25 
 66.34         24 
 66.36         24 
 66.38         25 
 66.4          29 
 66.42         22 
 66.44         24 
 66.46         26 
 66.48         28 
 66.5          15 
 66.52         27 
 66.54         18 
 66.56         19 
 66.58         30 
 66.6          13 
 66.62         25 
 66.64         31 
 66.66         15 
 66.68         17 
 66.7          18 
 66.72         19 
 66.74         24 
 66.76         16 
 66.78         14 
 66.8          16 
 66.82         23 
 66.84         20 
 66.86         14 
 66.88         19 
 66.9          16 
 66.92         17 
 66.94         27 
 66.96         19 
 66.98         16 
 67            17 
 67.02         23 
 67.04         13 
 67.06         16 
 67.08         24 
 67.1          21 
 67.12         21 
 67.14         16 
 67.16         17 
 67.18         14 
 67.2          11 
 67.22         16 
 67.24         19 
 67.26         20 
 67.28         22 
 67.3          17 
 67.32         23 
 67.34         22 
 67.36         19 
 67.38         26 
 67.4          21 
 67.42         21 
 67.44         14 
 67.46         14 
 67.48         20 
 67.5          19 
 67.52         21 
 67.54         27 
 67.56         20 
 67.58         19 
 67.6          30 
 67.62         21 
 67.64         28 
 67.66         19 
 67.68         19 
 67.7          22 
 67.72         14 
 67.74         17 
 67.76         25 
 67.78         21 
 67.8          23 
 67.82         22 
 67.84         20 
 67.86         18 
 67.88         14 
 67.9          23 
 67.92         25 
 67.94         20 
 67.96         25 
 67.98         25 
 68            24 
 68.02         13 
 68.04         20 
 68.06         17 
 68.08         27 
 68.1          14 
 68.12         24 
 68.14         20 
 68.16         21 
 68.18         27 
 68.2          16 
 68.22         23 
 68.24         18 
 68.26         18 
 68.28         16 
 68.3          25 
 68.32         19 
 68.34         21 
 68.36         17 
 68.38         20 
 68.4          14 
 68.42         19 
 68.44         34 
 68.46         15 
 68.48         19 
 68.5          22 
 68.52         29 
 68.54         19 
 68.56         20 
 68.58         23 
 68.6          17 
 68.62         27 
 68.64         20 
 68.66         31 
 68.68         26 
 68.7          21 
 68.72         24 
 68.74         20 
 68.76         22 
 68.78         21 
 68.8          24 
 68.82         24 
 68.84         15 
 68.86         31 
 68.88         23 
 68.9          18 
 68.92         20 
 68.94         21 
 68.96         19 
 68.98         23 
 69            18 
 69.02         19 
 69.04         22 
 69.06         18 
 69.08         25 
 69.1          34 
 69.12         21 
 69.14         16 
 69.16         19 
 69.18         23 
 69.2          16 
 69.22         19 
 69.24         23 
 69.26         25 
 69.28         19 
 69.3          17 
 69.32         23 
 69.34         24 
 69.36         22 
 69.38         23 
 69.4          19 
 69.42         18 
 69.44         24 
 69.46         14 
 69.48         25 
 69.5          19 
 69.52         21 
 69.54         30 
 69.56         22 
 69.58         26 
 69.6          23 
 69.62         27 
 69.64         24 
 69.66         18 
 69.68         19 
 69.7          23 
 69.72         16 
 69.74         19 
 69.76         26 
 69.78         23 
 69.8          18 
 69.82         23 
 69.84         24 
 69.86         28 
 69.88         19 
 69.9          36 
 69.92         22 
 69.94         25 
 69.96         15 
 69.98         26 
 70            22 
 70.02         29 
 70.04         32 
 70.06         30 
 70.08         28 
 70.1          17 
 70.12         23 
 70.14         24 
 70.16         32 
 70.18         29 
 70.2          33 
 70.22         31 
 70.24         27 
 70.26         30 
 70.28         28 
 70.3          40 
 70.32         31 
 70.34         29 
 70.36         36 
 70.38         30 
 70.4          39 
 70.42         32 
 70.44         26 
 70.46         32 
 70.48         33 
 70.5          26 
 70.52         46 
 70.54         34 
 70.56         26 
 70.58         42 
 70.6          21 
 70.62         32 
 70.64         39 
 70.66         28 
 70.68         39 
 70.7          25 
 70.72         33 
 70.74         37 
 70.76         37 
 70.78         35 
 70.8          38 
 70.82         19 
 70.84         30 
 70.86         38 
 70.88         39 
 70.9          28 
 70.92         32 
 70.94         36 
 70.96         22 
 70.98         30 
 71            28 
 71.02         32 
 71.04         30 
 71.06         30 
 71.08         24 
 71.1          28 
 71.12         33 
 71.14         23 
 71.16         30 
 71.18         29 
 71.2          17 
 71.22         33 
 71.24         34 
 71.26         30 
 71.28         28 
 71.3          26 
 71.32         33 
 71.34         32 
 71.36         25 
 71.38         25 
 71.4          32 
 71.42         25 
 71.44         23 
 71.46         21 
 71.48         20 
 71.5          19 
 71.52         24 
 71.54         28 
 71.56         20 
 71.58         27 
 71.6          24 
 71.62         22 
 71.64         21 
 71.66         20 
 71.68         21 
 71.7          22 
 71.72         17 
 71.74         24 
 71.76         17 
 71.78         25 
 71.8          23 
 71.82         27 
 71.84         24 
 71.86         23 
 71.88         35 
 71.9          31 
 71.92         18 
 71.94         22 
 71.96         26 
 71.98         27 
 72            25 
 72.02         33 
 72.04         21 
 72.06         15 
 72.08         28 
 72.1          25 
 72.12         28 
 72.14         20 
 72.16         17 
 72.18         25 
 72.2          22 
 72.22         30 
 72.24         27 
 72.26         22 
 72.28         32 
 72.3          29 
 72.32         24 
 72.34         25 
 72.36         25 
 72.38         32 
 72.4          24 
 72.42         19 
 72.44         38 
 72.46         22 
 72.48         31 
 72.5          34 
 72.52         31 
 72.54         34 
 72.56         37 
 72.58         43 
 72.6          39 
 72.62         42 
 72.64         33 
 72.66         36 
 72.68         41 
 72.7          32 
 72.72         28 
 72.74         38 
 72.76         52 
 72.78         45 
 72.8          40 
 72.82         46 
 72.84         42 
 72.86         40 
 72.88         43 
 72.9          47 
 72.92         45 
 72.94         55 
 72.96         51 
 72.98         60 
 73            47 
 73.02         56 
 73.04         55 
 73.06         55 
 73.08         48 
 73.1          52 
 73.12         65 
 73.14         69 
 73.16         60 
 73.18         65 
 73.2          57 
 73.22         75 
 73.24         72 
 73.26         70 
 73.28         85 
 73.3          78 
 73.32         78 
 73.34         90 
 73.36         87 
 73.38         94 
 73.4          114 
 73.42         117 
 73.44         105 
 73.46         123 
 73.48         102 
 73.5          98 
 73.52         115 
 73.54         130 
 73.56         97 
 73.58         111 
 73.6          104 
 73.62         111 
 73.64         124 
 73.66         114 
 73.68         97 
 73.7          115 
 73.72         104 
 73.74         92 
 73.76         101 
 73.78         100 
 73.8          88 
 73.82         89 
 73.84         99 
 73.86         78 
 73.88         91 
 73.9          73 
 73.92         80 
 73.93999      79 
 73.96         83 
 73.98         75 
 74            73 
 74.02         63 
 74.04         75 
 74.06         65 
 74.08         66 
 74.1          73 
 74.12         58 
 74.14         76 
 74.16         72 
 74.18         65 
 74.2          71 
 74.22         76 
 74.24         58 
 74.26         58 
 74.28         61 
 74.3          76 
 74.32         69 
 74.34         76 
 74.36         74 
 74.38         63 
 74.4          67 
 74.42         66 
 74.43999      70 
 74.46         77 
 74.48         69 
 74.5          59 
 74.52         57 
 74.54         64 
 74.56         48 
 74.58         62 
 74.6          62 
 74.62         69 
 74.64         78 
 74.66         57 
 74.68         67 
 74.7          61 
 74.72         69 
 74.74         75 
 74.76         56 
 74.78         57 
 74.8          61 
 74.82         57 
 74.84         54 
 74.86         61 
 74.88         55 
 74.9          54 
 74.92         64 
 74.93999      59 
 74.96         71 
 74.98         65 
 75            63 
