LNMO auf L432 750°C Fast  Original Data
 3151 
 12            390 
 12.02         328 
 12.04         374 
 12.06         362 
 12.08         350 
 12.1          350 
 12.12         349 
 12.14         370 
 12.16         346 
 12.18         365 
 12.2          348 
 12.22         361 
 12.24         372 
 12.26         389 
 12.28         358 
 12.3          361 
 12.32         348 
 12.34         394 
 12.36         339 
 12.38         358 
 12.4          380 
 12.42         338 
 12.44         361 
 12.46         340 
 12.48         359 
 12.5          349 
 12.52         381 
 12.54         327 
 12.56         409 
 12.58         367 
 12.6          368 
 12.62         353 
 12.64         365 
 12.66         343 
 12.68         389 
 12.7          363 
 12.72         329 
 12.74         338 
 12.76         370 
 12.78         370 
 12.8          336 
 12.82         362 
 12.84         317 
 12.86         418 
 12.88         342 
 12.9          382 
 12.92         344 
 12.94         376 
 12.96         333 
 12.98         341 
 13            317 
 13.02         382 
 13.04         328 
 13.06         347 
 13.08         362 
 13.1          329 
 13.12         383 
 13.14         332 
 13.16         371 
 13.18         384 
 13.2          365 
 13.22         321 
 13.24         346 
 13.26         310 
 13.28         338 
 13.3          325 
 13.32         355 
 13.34         300 
 13.36         321 
 13.38         336 
 13.4          350 
 13.42         340 
 13.44         290 
 13.46         330 
 13.48         315 
 13.5          377 
 13.52         312 
 13.54         322 
 13.56         290 
 13.58         321 
 13.6          326 
 13.62         341 
 13.64         292 
 13.66         307 
 13.68         316 
 13.7          306 
 13.72         310 
 13.74         298 
 13.76         336 
 13.78         290 
 13.8          290 
 13.82         283 
 13.84         307 
 13.86         298 
 13.88         297 
 13.9          279 
 13.92         303 
 13.94         303 
 13.96         283 
 13.98         281 
 14            271 
 14.02         275 
 14.04         254 
 14.06         279 
 14.08         258 
 14.1          283 
 14.12         268 
 14.14         322 
 14.16         242 
 14.18         262 
 14.2          260 
 14.22         261 
 14.24         239 
 14.26         269 
 14.28         258 
 14.3          248 
 14.32         254 
 14.34         267 
 14.36         274 
 14.38         227 
 14.4          250 
 14.42         227 
 14.44         295 
 14.46         233 
 14.48         303 
 14.5          215 
 14.52         277 
 14.54         227 
 14.56         270 
 14.58         271 
 14.6          235 
 14.62         220 
 14.64         225 
 14.66         256 
 14.68         210 
 14.7          251 
 14.72         236 
 14.74         248 
 14.76         213 
 14.78         253 
 14.8          239 
 14.82         219 
 14.84         220 
 14.86         253 
 14.88         202 
 14.9          230 
 14.92         233 
 14.94         214 
 14.96         236 
 14.98         232 
 15            229 
 15.02         229 
 15.04         225 
 15.06         220 
 15.08         217 
 15.1          230 
 15.12         236 
 15.14         238 
 15.16         230 
 15.18         180 
 15.2          222 
 15.22         208 
 15.24         189 
 15.26         192 
 15.28         212 
 15.3          234 
 15.32         188 
 15.34         201 
 15.36         194 
 15.38         229 
 15.4          199 
 15.42         187 
 15.44         198 
 15.46         195 
 15.48         192 
 15.5          223 
 15.52         186 
 15.54         179 
 15.56         188 
 15.58         221 
 15.6          207 
 15.62         192 
 15.64         190 
 15.66         183 
 15.68         203 
 15.7          165 
 15.72         186 
 15.74         202 
 15.76         185 
 15.78         183 
 15.8          182 
 15.82         195 
 15.84         190 
 15.86         196 
 15.88         152 
 15.9          183 
 15.92         184 
 15.94         172 
 15.96         153 
 15.98         171 
 16            172 
 16.02         170 
 16.04         187 
 16.06         169 
 16.08         150 
 16.1          176 
 16.12         187 
 16.14         156 
 16.16         177 
 16.18         187 
 16.2          175 
 16.22         176 
 16.24         164 
 16.26         174 
 16.28         169 
 16.3          155 
 16.32         167 
 16.34         173 
 16.36         168 
 16.38         157 
 16.4          160 
 16.42         177 
 16.44         190 
 16.46         165 
 16.48         150 
 16.5          153 
 16.52         165 
 16.54         165 
 16.56         161 
 16.58         178 
 16.6          182 
 16.62         148 
 16.64         159 
 16.66         164 
 16.68         169 
 16.7          170 
 16.72         144 
 16.74         164 
 16.76         162 
 16.78         156 
 16.8          144 
 16.82         154 
 16.84         154 
 16.86         154 
 16.88         145 
 16.9          146 
 16.92         175 
 16.94         150 
 16.96         146 
 16.98         144 
 17            156 
 17.02         145 
 17.04         145 
 17.06         138 
 17.08         147 
 17.1          156 
 17.12         132 
 17.14         176 
 17.16         147 
 17.18         147 
 17.2          140 
 17.22         168 
 17.24         141 
 17.26         168 
 17.28         158 
 17.3          151 
 17.32         166 
 17.34         157 
 17.36         156 
 17.38         160 
 17.4          151 
 17.42         169 
 17.44         133 
 17.46         166 
 17.48         163 
 17.5          135 
 17.52         152 
 17.54         128 
 17.56         148 
 17.58         147 
 17.6          144 
 17.62         150 
 17.64         140 
 17.66         164 
 17.68         153 
 17.7          182 
 17.72         177 
 17.74         165 
 17.76         169 
 17.78         177 
 17.8          170 
 17.82         165 
 17.84         178 
 17.86         185 
 17.88         181 
 17.9          207 
 17.92         195 
 17.94         225 
 17.96         243 
 17.98         272 
 18            272 
 18.02         272 
 18.04         309 
 18.06         390 
 18.08         393 
 18.1          401 
 18.12         466 
 18.14         520 
 18.16         538 
 18.18         642 
 18.2          766 
 18.22         871 
 18.24         938 
 18.26         1045 
 18.28         1077 
 18.3          1184 
 18.32         1198 
 18.34         1276 
 18.36         1211 
 18.38         1303 
 18.4          1223 
 18.42         1197 
 18.44         1153 
 18.46         1194 
 18.48         1291 
 18.5          1358 
 18.52         1423 
 18.54         1498 
 18.56         1514 
 18.58         1591 
 18.6          1590 
 18.62         1656 
 18.64         1741 
 18.66         1558 
 18.68         1438 
 18.7          1332 
 18.72         1156 
 18.74         961 
 18.76         833 
 18.78         617 
 18.8          540 
 18.82         433 
 18.84         417 
 18.86         354 
 18.88         308 
 18.9          287 
 18.92         259 
 18.94         236 
 18.96         244 
 18.98         249 
 19            223 
 19.02         216 
 19.04         184 
 19.06         190 
 19.08         174 
 19.1          168 
 19.12         156 
 19.14         165 
 19.16         168 
 19.18         166 
 19.2          164 
 19.22         146 
 19.24         133 
 19.26         142 
 19.28         147 
 19.3          142 
 19.32         137 
 19.34         149 
 19.36         157 
 19.38         140 
 19.4          126 
 19.42         151 
 19.44         131 
 19.46         114 
 19.48         126 
 19.5          119 
 19.52         126 
 19.54         119 
 19.56         139 
 19.58         129 
 19.6          127 
 19.62         120 
 19.64         137 
 19.66         110 
 19.68         143 
 19.7          131 
 19.72         110 
 19.74         130 
 19.76         108 
 19.78         111 
 19.8          120 
 19.82         108 
 19.84         110 
 19.86         102 
 19.88         128 
 19.9          116 
 19.92         129 
 19.94         105 
 19.96         115 
 19.98         107 
 20            109 
 20.02         97 
 20.04         110 
 20.06         94 
 20.08         116 
 20.1          129 
 20.12         100 
 20.14         106 
 20.16         124 
 20.18         104 
 20.2          101 
 20.22         112 
 20.24         104 
 20.26         113 
 20.28         86 
 20.3          96 
 20.32         112 
 20.34         122 
 20.36         103 
 20.38         94 
 20.4          99 
 20.42         102 
 20.44         100 
 20.46         111 
 20.48         105 
 20.5          108 
 20.52         106 
 20.54         102 
 20.56         113 
 20.58         98 
 20.6          113 
 20.62         97 
 20.64         107 
 20.66         101 
 20.68         100 
 20.7          91 
 20.72         97 
 20.74         110 
 20.76         91 
 20.78         115 
 20.8          110 
 20.82         132 
 20.84         107 
 20.86         109 
 20.88         103 
 20.9          111 
 20.92         92 
 20.94         111 
 20.96         106 
 20.98         110 
 21            105 
 21.02         107 
 21.04         109 
 21.06         94 
 21.08         106 
 21.1          103 
 21.12         132 
 21.14         108 
 21.16         110 
 21.18         121 
 21.2          116 
 21.22         115 
 21.24         155 
 21.26         133 
 21.28         108 
 21.3          128 
 21.32         134 
 21.34         134 
 21.36         114 
 21.38         119 
 21.4          120 
 21.42         130 
 21.44         123 
 21.46         127 
 21.48         106 
 21.5          111 
 21.52         97 
 21.54         123 
 21.56         107 
 21.58         126 
 21.6          108 
 21.62         83 
 21.64         124 
 21.66         112 
 21.68         103 
 21.7          102 
 21.72         98 
 21.74         93 
 21.76         112 
 21.78         85 
 21.8          81 
 21.82         105 
 21.84         100 
 21.86         100 
 21.88         100 
 21.9          81 
 21.92         100 
 21.94         108 
 21.96         89 
 21.98         96 
 22            94 
 22.02         100 
 22.04         82 
 22.06         87 
 22.08         83 
 22.1          77 
 22.12         95 
 22.14         97 
 22.16         108 
 22.18         77 
 22.2          90 
 22.22         104 
 22.24         98 
 22.26         101 
 22.28         97 
 22.3          75 
 22.32         90 
 22.34         93 
 22.36         83 
 22.38         108 
 22.4          100 
 22.42         88 
 22.44         75 
 22.46         97 
 22.48         87 
 22.5          87 
 22.52         96 
 22.54         90 
 22.56         99 
 22.58         84 
 22.6          85 
 22.62         85 
 22.64         91 
 22.66         89 
 22.68         75 
 22.7          90 
 22.72         97 
 22.74         86 
 22.76         95 
 22.78         95 
 22.8          74 
 22.82         81 
 22.84         78 
 22.86         88 
 22.88         72 
 22.9          82 
 22.92         83 
 22.94         97 
 22.96         93 
 22.98         84 
 23            98 
 23.02         76 
 23.04         85 
 23.06         75 
 23.08         77 
 23.1          95 
 23.12         79 
 23.14         84 
 23.16         73 
 23.18         90 
 23.2          87 
 23.22         84 
 23.24         68 
 23.26         98 
 23.28         81 
 23.3          66 
 23.32         83 
 23.34         79 
 23.36         83 
 23.38         96 
 23.4          68 
 23.42         78 
 23.44         102 
 23.46         89 
 23.48         68 
 23.5          69 
 23.52         72 
 23.54         83 
 23.56         72 
 23.58         92 
 23.6          77 
 23.62         98 
 23.64         92 
 23.66         70 
 23.68         59 
 23.7          80 
 23.72         80 
 23.74         80 
 23.76         86 
 23.78         79 
 23.8          81 
 23.82         77 
 23.84         78 
 23.86         96 
 23.88         72 
 23.9          82 
 23.92         83 
 23.94         63 
 23.96         85 
 23.98         81 
 24            71 
 24.02         105 
 24.04         84 
 24.06         78 
 24.08         76 
 24.1          87 
 24.12         92 
 24.14         79 
 24.16         79 
 24.18         76 
 24.2          92 
 24.22         70 
 24.24         79 
 24.26         100 
 24.28         54 
 24.3          72 
 24.32         76 
 24.34         75 
 24.36         96 
 24.38         59 
 24.4          78 
 24.42         91 
 24.44         88 
 24.46         65 
 24.48         81 
 24.5          76 
 24.52         72 
 24.54         77 
 24.56         84 
 24.58         93 
 24.6          89 
 24.62         82 
 24.64         79 
 24.66         84 
 24.68         71 
 24.7          82 
 24.72         72 
 24.74         71 
 24.76         73 
 24.78         75 
 24.8          82 
 24.82         73 
 24.84         81 
 24.86         66 
 24.88         74 
 24.9          83 
 24.92         77 
 24.94         72 
 24.96         89 
 24.98         81 
 25            92 
 25.02         81 
 25.04         74 
 25.06         110 
 25.08         57 
 25.1          102 
 25.12         82 
 25.14         81 
 25.16         84 
 25.18         76 
 25.2          85 
 25.22         73 
 25.24         80 
 25.26         82 
 25.28         77 
 25.3          85 
 25.32         70 
 25.34         85 
 25.36         91 
 25.38         75 
 25.4          79 
 25.42         75 
 25.44         78 
 25.46         79 
 25.48         97 
 25.5          63 
 25.52         74 
 25.54         78 
 25.56         72 
 25.58         78 
 25.6          65 
 25.62         80 
 25.64         62 
 25.66         66 
 25.68         70 
 25.7          69 
 25.72         68 
 25.74         50 
 25.76         73 
 25.78         63 
 25.8          58 
 25.82         80 
 25.84         85 
 25.86         70 
 25.88         70 
 25.9          65 
 25.92         72 
 25.94         66 
 25.96         72 
 25.98         81 
 26            91 
 26.02         88 
 26.04         66 
 26.06         71 
 26.08         85 
 26.1          63 
 26.12         94 
 26.14         76 
 26.16         89 
 26.18         93 
 26.2          87 
 26.22         91 
 26.24         87 
 26.26         90 
 26.28         81 
 26.3          72 
 26.32         96 
 26.34         100 
 26.36         100 
 26.38         126 
 26.4          89 
 26.42         105 
 26.44         102 
 26.46         101 
 26.48         93 
 26.5          99 
 26.52         128 
 26.54         81 
 26.56         103 
 26.58         87 
 26.6          105 
 26.62         103 
 26.64         97 
 26.66         95 
 26.68         100 
 26.7          88 
 26.72         81 
 26.74         88 
 26.76         71 
 26.78         86 
 26.8          87 
 26.82         52 
 26.84         61 
 26.86         70 
 26.88         56 
 26.9          85 
 26.92         73 
 26.94         69 
 26.96         63 
 26.98         68 
 27            70 
 27.02         77 
 27.04         70 
 27.06         77 
 27.08         61 
 27.1          69 
 27.12         67 
 27.14         83 
 27.16         68 
 27.18         73 
 27.2          66 
 27.22         76 
 27.24         74 
 27.26         64 
 27.28         74 
 27.3          59 
 27.32         75 
 27.34         69 
 27.36         57 
 27.38         55 
 27.4          73 
 27.42         66 
 27.44         67 
 27.46         66 
 27.48         70 
 27.5          80 
 27.52         47 
 27.54         58 
 27.56         73 
 27.58         83 
 27.6          65 
 27.62         70 
 27.64         61 
 27.66         85 
 27.68         68 
 27.7          69 
 27.72         57 
 27.74         78 
 27.76         70 
 27.78         65 
 27.8          62 
 27.82         79 
 27.84         65 
 27.86         82 
 27.88         75 
 27.9          70 
 27.92         71 
 27.94         63 
 27.96         81 
 27.98         83 
 28            76 
 28.02         87 
 28.04         80 
 28.06         69 
 28.08         79 
 28.1          87 
 28.12         74 
 28.14         72 
 28.16         73 
 28.18         86 
 28.2          77 
 28.22         91 
 28.24         78 
 28.26         83 
 28.28         86 
 28.3          64 
 28.32         79 
 28.34         71 
 28.36         82 
 28.38         87 
 28.4          74 
 28.42         63 
 28.44         86 
 28.46         78 
 28.48         69 
 28.5          52 
 28.52         80 
 28.54         57 
 28.56         47 
 28.58         62 
 28.6          55 
 28.62         71 
 28.64         58 
 28.66         56 
 28.68         80 
 28.7          64 
 28.72         80 
 28.74         62 
 28.76         76 
 28.78         77 
 28.8          64 
 28.82         76 
 28.84         62 
 28.86         72 
 28.88         64 
 28.9          67 
 28.92         64 
 28.94         59 
 28.96         73 
 28.98         63 
 29            64 
 29.02         65 
 29.04         60 
 29.06         73 
 29.08         67 
 29.1          72 
 29.12         67 
 29.14         84 
 29.16         57 
 29.18         64 
 29.2          60 
 29.22         72 
 29.24         67 
 29.26         86 
 29.28         68 
 29.3          80 
 29.32         84 
 29.34         66 
 29.36         84 
 29.38         71 
 29.4          78 
 29.42         65 
 29.44         76 
 29.46         78 
 29.48         85 
 29.5          82 
 29.52         73 
 29.54         62 
 29.56         84 
 29.58         80 
 29.6          93 
 29.62         86 
 29.64         86 
 29.66         111 
 29.68         118 
 29.7          109 
 29.72         113 
 29.74         136 
 29.76         129 
 29.78         120 
 29.8          167 
 29.82         166 
 29.84         216 
 29.86         256 
 29.88         318 
 29.9          312 
 29.92         379 
 29.94         461 
 29.96         509 
 29.98         601 
 30            721 
 30.02         753 
 30.04         803 
 30.06         923 
 30.08         908 
 30.1          895 
 30.12         965 
 30.14         912 
 30.16         826 
 30.18         765 
 30.2          694 
 30.22         638 
 30.24         539 
 30.26         465 
 30.28         418 
 30.3          388 
 30.32         361 
 30.34         321 
 30.36         306 
 30.38         234 
 30.4          259 
 30.42         257 
 30.44         211 
 30.46         200 
 30.48         202 
 30.5          186 
 30.52         190 
 30.54         179 
 30.56         171 
 30.58         173 
 30.6          156 
 30.62         168 
 30.64         166 
 30.66         162 
 30.68         150 
 30.7          154 
 30.72         162 
 30.74         127 
 30.76         131 
 30.78         115 
 30.8          117 
 30.82         117 
 30.84         95 
 30.86         91 
 30.88         82 
 30.9          83 
 30.92         84 
 30.94         85 
 30.96         74 
 30.98         73 
 31            80 
 31.02         82 
 31.04         85 
 31.06         61 
 31.08         76 
 31.1          72 
 31.12         62 
 31.14         61 
 31.16         71 
 31.18         87 
 31.2          68 
 31.22         83 
 31.24         68 
 31.26         70 
 31.28         63 
 31.3          84 
 31.32         76 
 31.34         76 
 31.36         72 
 31.38         86 
 31.4          83 
 31.42         60 
 31.44         69 
 31.46         88 
 31.48         68 
 31.5          83 
 31.52         88 
 31.54         79 
 31.56         71 
 31.58         77 
 31.6          77 
 31.62         70 
 31.64         55 
 31.66         61 
 31.68         52 
 31.7          66 
 31.72         71 
 31.74         62 
 31.76         51 
 31.78         70 
 31.8          72 
 31.82         74 
 31.84         75 
 31.86         62 
 31.88         67 
 31.9          77 
 31.92         69 
 31.94         48 
 31.96         64 
 31.98         56 
 32            70 
 32.02         82 
 32.04         62 
 32.06         63 
 32.08         63 
 32.1          57 
 32.12         49 
 32.14         61 
 32.16         60 
 32.18         57 
 32.2          62 
 32.22         57 
 32.24         72 
 32.26         66 
 32.28         59 
 32.3          61 
 32.32         77 
 32.34         67 
 32.36         67 
 32.38         61 
 32.4          62 
 32.42         57 
 32.44         41 
 32.46         73 
 32.48         63 
 32.5          64 
 32.52         79 
 32.54         68 
 32.56         63 
 32.58         70 
 32.6          65 
 32.62         64 
 32.64         60 
 32.66         60 
 32.68         58 
 32.7          53 
 32.72         64 
 32.74         61 
 32.76         57 
 32.78         71 
 32.8          72 
 32.82         65 
 32.84         69 
 32.86         70 
 32.88         71 
 32.9          80 
 32.92         83 
 32.94         79 
 32.96         90 
 32.98         98 
 33            76 
 33.02         88 
 33.04         60 
 33.06         65 
 33.08         83 
 33.1          63 
 33.12         64 
 33.14         60 
 33.16         63 
 33.18         63 
 33.2          71 
 33.22         63 
 33.24         74 
 33.26         59 
 33.28         77 
 33.3          68 
 33.32         55 
 33.34         79 
 33.36         66 
 33.38         58 
 33.4          62 
 33.42         61 
 33.44         48 
 33.46         61 
 33.48         59 
 33.5          49 
 33.52         53 
 33.54         65 
 33.56         58 
 33.58         68 
 33.6          50 
 33.62         69 
 33.64         65 
 33.66         52 
 33.68         69 
 33.7          62 
 33.72         78 
 33.74         72 
 33.76         60 
 33.78         64 
 33.8          67 
 33.82         61 
 33.84         60 
 33.86         56 
 33.88         72 
 33.9          66 
 33.92         70 
 33.94         73 
 33.96         55 
 33.98         71 
 34            74 
 34.02         64 
 34.04         68 
 34.06         81 
 34.08         77 
 34.1          70 
 34.12         81 
 34.14         78 
 34.16         75 
 34.18         57 
 34.2          78 
 34.22         63 
 34.24         75 
 34.26         71 
 34.28         70 
 34.3          72 
 34.32         88 
 34.34         90 
 34.36         73 
 34.38         67 
 34.4          64 
 34.42         80 
 34.44         82 
 34.46         100 
 34.48         87 
 34.5          76 
 34.52         94 
 34.54         87 
 34.56         90 
 34.58         105 
 34.6          75 
 34.62         88 
 34.64         106 
 34.66         97 
 34.68         120 
 34.7          102 
 34.72         113 
 34.74         123 
 34.76         122 
 34.78         131 
 34.8          114 
 34.82         125 
 34.84         136 
 34.86         127 
 34.88         132 
 34.9          147 
 34.92         152 
 34.94         179 
 34.96         212 
 34.98         188 
 35            214 
 35.02         225 
 35.04         246 
 35.06         249 
 35.08         283 
 35.1          342 
 35.12         374 
 35.14         424 
 35.16         518 
 35.18         575 
 35.2          659 
 35.22         794 
 35.24         921 
 35.26         1099 
 35.28         1379 
 35.3          1576 
 35.32         1849 
 35.34         2131 
 35.36         2432 
 35.38         2533 
 35.4          2815 
 35.42         3049 
 35.44         3189 
 35.46         3260 
 35.48         3202 
 35.5          3223 
 35.52         2914 
 35.54         2855 
 35.56         2617 
 35.58         2375 
 35.6          2159 
 35.62         2031 
 35.64         1875 
 35.66         1689 
 35.68         1569 
 35.7          1413 
 35.72         1362 
 35.74         1208 
 35.76         1171 
 35.78         1082 
 35.8          1063 
 35.82         1104 
 35.84         977 
 35.86         992 
 35.88         1040 
 35.9          939 
 35.92         991 
 35.94         968 
 35.96         949 
 35.98         990 
 36            993 
 36.02         1026 
 36.04         1069 
 36.06         1085 
 36.08         1185 
 36.1          1113 
 36.12         1203 
 36.14         1250 
 36.16         1205 
 36.18         1333 
 36.2          1244 
 36.22         1202 
 36.24         1097 
 36.26         1041 
 36.28         933 
 36.3          761 
 36.32         680 
 36.34         589 
 36.36         483 
 36.38         393 
 36.4          347 
 36.42         299 
 36.44         272 
 36.46         237 
 36.48         212 
 36.5          181 
 36.52         176 
 36.54         156 
 36.56         169 
 36.58         160 
 36.6          170 
 36.62         137 
 36.64         135 
 36.66         135 
 36.68         144 
 36.7          118 
 36.72         114 
 36.74         134 
 36.76         142 
 36.78         128 
 36.8          127 
 36.82         113 
 36.84         151 
 36.86         151 
 36.88         165 
 36.9          178 
 36.92         216 
 36.94         231 
 36.96         246 
 36.98         278 
 37            320 
 37.02         275 
 37.04         320 
 37.06         327 
 37.08         368 
 37.1          370 
 37.12         371 
 37.14         363 
 37.16         367 
 37.18         323 
 37.2          351 
 37.22         325 
 37.24         291 
 37.26         289 
 37.28         282 
 37.3          259 
 37.32         258 
 37.34         228 
 37.36         238 
 37.38         223 
 37.4          191 
 37.42         203 
 37.44         194 
 37.46         180 
 37.48         186 
 37.5          171 
 37.52         201 
 37.54         154 
 37.56         171 
 37.58         178 
 37.6          186 
 37.62         195 
 37.64         180 
 37.66         182 
 37.68         134 
 37.7          181 
 37.72         194 
 37.74         205 
 37.76         216 
 37.78         222 
 37.8          223 
 37.82         240 
 37.84         268 
 37.86         249 
 37.88         250 
 37.9          242 
 37.92         217 
 37.94         201 
 37.96         183 
 37.98         181 
 38            154 
 38.02         134 
 38.04         125 
 38.06         87 
 38.08         101 
 38.1          70 
 38.12         79 
 38.14         77 
 38.16         70 
 38.18         92 
 38.2          66 
 38.22         56 
 38.24         72 
 38.26         70 
 38.28         65 
 38.3          62 
 38.32         66 
 38.34         57 
 38.36         62 
 38.38         58 
 38.4          44 
 38.42         61 
 38.44         47 
 38.46         46 
 38.48         42 
 38.5          64 
 38.52         50 
 38.54         56 
 38.56         48 
 38.58         52 
 38.6          34 
 38.62         63 
 38.64         61 
 38.66         52 
 38.68         54 
 38.7          57 
 38.72         45 
 38.74         54 
 38.76         64 
 38.78         44 
 38.8          53 
 38.82         44 
 38.84         54 
 38.86         60 
 38.88         43 
 38.9          63 
 38.92         33 
 38.94         43 
 38.96         50 
 38.98         48 
 39            40 
 39.02         44 
 39.04         42 
 39.06         47 
 39.08         43 
 39.1          50 
 39.12         49 
 39.14         42 
 39.16         51 
 39.18         43 
 39.2          39 
 39.22         49 
 39.24         40 
 39.26         40 
 39.28         44 
 39.3          38 
 39.32         33 
 39.34         44 
 39.36         45 
 39.38         49 
 39.4          43 
 39.42         31 
 39.44         32 
 39.46         54 
 39.48         47 
 39.5          42 
 39.52         43 
 39.54         42 
 39.56         33 
 39.58         52 
 39.6          46 
 39.62         42 
 39.64         52 
 39.66         57 
 39.68         43 
 39.7          38 
 39.72         35 
 39.74         45 
 39.76         40 
 39.78         38 
 39.8          37 
 39.82         46 
 39.84         53 
 39.86         40 
 39.88         29 
 39.9          38 
 39.92         38 
 39.94         44 
 39.96         35 
 39.98         44 
 40            51 
 40.02         41 
 40.04         51 
 40.06         32 
 40.08         35 
 40.1          43 
 40.12         38 
 40.14         45 
 40.16         47 
 40.18         44 
 40.2          37 
 40.22         43 
 40.24         39 
 40.26         38 
 40.28         45 
 40.3          45 
 40.32         49 
 40.34         45 
 40.36         43 
 40.38         48 
 40.4          30 
 40.42         27 
 40.44         48 
 40.46         40 
 40.48         44 
 40.5          40 
 40.52         37 
 40.54         43 
 40.56         48 
 40.58         43 
 40.6          49 
 40.62         32 
 40.64         34 
 40.66         48 
 40.68         41 
 40.7          56 
 40.72         49 
 40.74         48 
 40.76         43 
 40.78         43 
 40.8          44 
 40.82         42 
 40.84         43 
 40.86         50 
 40.88         40 
 40.9          38 
 40.92         52 
 40.94         43 
 40.96         46 
 40.98         38 
 41            48 
 41.02         47 
 41.04         37 
 41.06         42 
 41.08         48 
 41.1          40 
 41.12         61 
 41.14         48 
 41.16         47 
 41.18         36 
 41.2          39 
 41.22         56 
 41.24         40 
 41.26         56 
 41.28         40 
 41.3          45 
 41.32         39 
 41.34         51 
 41.36         42 
 41.38         48 
 41.4          49 
 41.42         40 
 41.44         41 
 41.46         39 
 41.48         44 
 41.5          39 
 41.52         43 
 41.54         34 
 41.56         49 
 41.58         52 
 41.6          49 
 41.62         43 
 41.64         43 
 41.66         37 
 41.68         47 
 41.7          54 
 41.72         34 
 41.74         45 
 41.76         44 
 41.78         42 
 41.8          48 
 41.82         65 
 41.84         61 
 41.86         47 
 41.88         45 
 41.9          62 
 41.92         51 
 41.94         55 
 41.96         52 
 41.98         50 
 42            46 
 42.02         51 
 42.04         53 
 42.06         49 
 42.08         50 
 42.1          56 
 42.12         75 
 42.14         54 
 42.16         34 
 42.18         54 
 42.2          56 
 42.22         68 
 42.24         58 
 42.26         63 
 42.28         50 
 42.3          65 
 42.32         72 
 42.34         69 
 42.36         75 
 42.38         62 
 42.4          66 
 42.42         62 
 42.44         69 
 42.46         70 
 42.48         77 
 42.5          81 
 42.52         78 
 42.54         81 
 42.56         88 
 42.58         70 
 42.6          104 
 42.62         93 
 42.64         102 
 42.66         112 
 42.68         113 
 42.7          123 
 42.72         148 
 42.74         164 
 42.76         174 
 42.78         195 
 42.8          225 
 42.82         242 
 42.84         238 
 42.86         289 
 42.88         337 
 42.9          411 
 42.92         408 
 42.94         475 
 42.96         540 
 42.98         600 
 43            674 
 43.02         694 
 43.04         794 
 43.06         865 
 43.08         842 
 43.1          892 
 43.12         871 
 43.14         931 
 43.16         925 
 43.18         946 
 43.2          917 
 43.22         923 
 43.24         883 
 43.26         872 
 43.28         846 
 43.3          759 
 43.32         727 
 43.34         688 
 43.36         728 
 43.38         699 
 43.4          687 
 43.42         587 
 43.44         627 
 43.46         605 
 43.48         576 
 43.5          592 
 43.52         551 
 43.54         522 
 43.56         583 
 43.58         558 
 43.6          567 
 43.62         532 
 43.64         568 
 43.66         593 
 43.68         552 
 43.7          543 
 43.72         561 
 43.74         621 
 43.76         656 
 43.78         629 
 43.8          612 
 43.82         654 
 43.84         729 
 43.86         727 
 43.88         736 
 43.9          745 
 43.92         858 
 43.94         860 
 43.96         895 
 43.98         902 
 44            975 
 44.02         909 
 44.04         926 
 44.06         926 
 44.08         816 
 44.1          761 
 44.12         625 
 44.14         606 
 44.16         570 
 44.18         428 
 44.2          387 
 44.22         312 
 44.24         268 
 44.26         244 
 44.28         204 
 44.3          175 
 44.32         169 
 44.34         161 
 44.36         112 
 44.38         131 
 44.4          117 
 44.42         141 
 44.44         93 
 44.46         92 
 44.48         104 
 44.5          82 
 44.52         87 
 44.54         80 
 44.56         92 
 44.58         78 
 44.6          84 
 44.62         85 
 44.64         87 
 44.66         72 
 44.68         68 
 44.7          67 
 44.72         90 
 44.74         72 
 44.76         66 
 44.78         62 
 44.8          66 
 44.82         66 
 44.84         63 
 44.86         49 
 44.88         64 
 44.9          65 
 44.92         53 
 44.94         58 
 44.96         63 
 44.98         65 
 45            56 
 45.02         55 
 45.04         61 
 45.06         54 
 45.08         56 
 45.1          58 
 45.12         48 
 45.14         53 
 45.16         45 
 45.18         49 
 45.2          38 
 45.22         54 
 45.24         60 
 45.26         60 
 45.28         43 
 45.3          49 
 45.32         61 
 45.34         52 
 45.36         47 
 45.38         49 
 45.4          48 
 45.42         54 
 45.44         52 
 45.46         48 
 45.48         44 
 45.5          54 
 45.52         61 
 45.54         35 
 45.56         45 
 45.58         54 
 45.6          45 
 45.62         48 
 45.64         38 
 45.66         55 
 45.68         55 
 45.7          39 
 45.72         47 
 45.74         43 
 45.76         37 
 45.78         43 
 45.8          42 
 45.82         48 
 45.84         41 
 45.86         51 
 45.88         38 
 45.9          51 
 45.92         44 
 45.94         42 
 45.96         34 
 45.98         59 
 46            48 
 46.02         53 
 46.04         55 
 46.06         47 
 46.08         34 
 46.1          47 
 46.12         52 
 46.14         49 
 46.16         39 
 46.18         47 
 46.2          51 
 46.22         43 
 46.24         37 
 46.26         49 
 46.28         36 
 46.3          40 
 46.32         51 
 46.34         47 
 46.36         32 
 46.38         34 
 46.4          43 
 46.42         34 
 46.44         44 
 46.46         43 
 46.48         40 
 46.5          42 
 46.52         45 
 46.54         40 
 46.56         38 
 46.58         33 
 46.6          39 
 46.62         26 
 46.64         46 
 46.66         50 
 46.68         43 
 46.7          38 
 46.72         43 
 46.74         51 
 46.76         48 
 46.78         46 
 46.8          49 
 46.82         45 
 46.84         45 
 46.86         40 
 46.88         54 
 46.9          33 
 46.92         55 
 46.94         48 
 46.96         37 
 46.98         57 
 47            35 
 47.02         43 
 47.04         45 
 47.06         41 
 47.08         45 
 47.1          53 
 47.12         56 
 47.14         44 
 47.16         55 
 47.18         48 
 47.2          72 
 47.22         60 
 47.24         51 
 47.26         62 
 47.28         57 
 47.3          67 
 47.32         48 
 47.34         56 
 47.36         77 
 47.38         62 
 47.4          66 
 47.42         75 
 47.44         71 
 47.46         60 
 47.48         70 
 47.5          77 
 47.52         63 
 47.54         63 
 47.56         62 
 47.58         79 
 47.6          64 
 47.62         73 
 47.64         80 
 47.66         83 
 47.68         56 
 47.7          65 
 47.72         88 
 47.74         58 
 47.76         81 
 47.78         72 
 47.8          82 
 47.82         89 
 47.84         77 
 47.86         77 
 47.88         79 
 47.9          73 
 47.92         86 
 47.94         110 
 47.96         77 
 47.98         105 
 48            111 
 48.02         101 
 48.04         114 
 48.06         120 
 48.08         131 
 48.1          133 
 48.12         153 
 48.14         161 
 48.16         156 
 48.18         171 
 48.2          177 
 48.22         168 
 48.24         159 
 48.26         149 
 48.28         130 
 48.3          127 
 48.32         118 
 48.34         112 
 48.36         94 
 48.38         107 
 48.4          88 
 48.42         69 
 48.44         72 
 48.46         66 
 48.48         60 
 48.5          49 
 48.52         62 
 48.54         67 
 48.56         56 
 48.58         58 
 48.6          42 
 48.62         47 
 48.64         54 
 48.66         46 
 48.68         54 
 48.7          38 
 48.72         51 
 48.74         41 
 48.76         53 
 48.78         44 
 48.8          45 
 48.82         41 
 48.84         48 
 48.86         44 
 48.88         54 
 48.9          36 
 48.92         45 
 48.94         50 
 48.96         41 
 48.98         36 
 49            43 
 49.02         55 
 49.04         42 
 49.06         45 
 49.08         50 
 49.1          38 
 49.12         49 
 49.14         36 
 49.16         51 
 49.18         56 
 49.2          48 
 49.22         39 
 49.24         46 
 49.26         58 
 49.28         42 
 49.3          34 
 49.32         49 
 49.34         43 
 49.36         52 
 49.38         32 
 49.4          38 
 49.42         60 
 49.44         46 
 49.46         49 
 49.48         39 
 49.5          37 
 49.52         48 
 49.54         54 
 49.56         49 
 49.58         36 
 49.6          37 
 49.62         44 
 49.64         49 
 49.66         36 
 49.68         50 
 49.7          46 
 49.72         62 
 49.74         50 
 49.76         37 
 49.78         34 
 49.8          41 
 49.82         49 
 49.84         51 
 49.86         59 
 49.88         51 
 49.9          43 
 49.92         55 
 49.94         59 
 49.96         59 
 49.98         54 
 50            69 
 50.02         57 
 50.04         54 
 50.06         58 
 50.08         57 
 50.1          57 
 50.12         66 
 50.14         48 
 50.16         68 
 50.18         81 
 50.2          66 
 50.22         59 
 50.24         66 
 50.26         71 
 50.28         64 
 50.3          72 
 50.32         59 
 50.34         86 
 50.36         71 
 50.38         55 
 50.4          70 
 50.42         71 
 50.44         73 
 50.46         86 
 50.48         64 
 50.5          54 
 50.52         77 
 50.54         57 
 50.56         48 
 50.58         54 
 50.6          64 
 50.62         72 
 50.64         67 
 50.66         69 
 50.68         46 
 50.7          54 
 50.72         55 
 50.74         62 
 50.76         77 
 50.78         50 
 50.8          55 
 50.82         58 
 50.84         42 
 50.86         50 
 50.88         57 
 50.9          55 
 50.92         54 
 50.94         40 
 50.96         46 
 50.98         51 
 51            57 
 51.02         47 
 51.04         42 
 51.06         35 
 51.08         43 
 51.1          34 
 51.12         48 
 51.14         45 
 51.16         44 
 51.18         40 
 51.2          48 
 51.22         33 
 51.24         51 
 51.26         49 
 51.28         43 
 51.3          41 
 51.32         39 
 51.34         45 
 51.36         42 
 51.38         48 
 51.4          52 
 51.42         39 
 51.44         35 
 51.46         38 
 51.48         49 
 51.5          44 
 51.52         34 
 51.54         24 
 51.56         47 
 51.58         47 
 51.6          37 
 51.62         53 
 51.64         47 
 51.66         47 
 51.68         49 
 51.7          49 
 51.72         54 
 51.74         47 
 51.76         29 
 51.78         41 
 51.8          41 
 51.82         57 
 51.84         48 
 51.86         42 
 51.88         39 
 51.9          47 
 51.92         45 
 51.94         37 
 51.96         43 
 51.98         50 
 52            47 
 52.02         57 
 52.04         56 
 52.06         43 
 52.08         52 
 52.1          40 
 52.12         36 
 52.14         48 
 52.16         48 
 52.18         48 
 52.2          47 
 52.22         48 
 52.24         34 
 52.26         41 
 52.28         52 
 52.3          34 
 52.32         51 
 52.34         40 
 52.36         52 
 52.38         41 
 52.4          40 
 52.42         50 
 52.44         47 
 52.46         56 
 52.48         44 
 52.5          33 
 52.52         44 
 52.54         45 
 52.56         50 
 52.58         46 
 52.6          35 
 52.62         32 
 52.64         46 
 52.66         38 
 52.68         52 
 52.7          33 
 52.72         43 
 52.74         49 
 52.76         48 
 52.78         49 
 52.8          42 
 52.82         63 
 52.84         51 
 52.86         45 
 52.88         64 
 52.9          61 
 52.92         47 
 52.94         43 
 52.96         50 
 52.98         52 
 53            72 
 53.02         69 
 53.04         53 
 53.06         69 
 53.08         67 
 53.1          68 
 53.12         75 
 53.14         81 
 53.16         78 
 53.18         84 
 53.2          90 
 53.22         99 
 53.24         107 
 53.26         120 
 53.28         112 
 53.3          143 
 53.32         158 
 53.34         146 
 53.36         163 
 53.38         185 
 53.4          178 
 53.42         207 
 53.44         192 
 53.46         192 
 53.48         191 
 53.5          189 
 53.52         194 
 53.54         192 
 53.56         190 
 53.58         173 
 53.6          159 
 53.62         172 
 53.64         175 
 53.66         134 
 53.68         153 
 53.7          132 
 53.72         114 
 53.74         103 
 53.76         95 
 53.78         97 
 53.8          103 
 53.82         118 
 53.84         79 
 53.86         95 
 53.88         97 
 53.9          94 
 53.92         79 
 53.94         86 
 53.96         73 
 53.98         69 
 54            85 
 54.02         77 
 54.04         69 
 54.06         75 
 54.08         91 
 54.1          78 
 54.12         63 
 54.14         65 
 54.16         77 
 54.18         77 
 54.2          67 
 54.22         54 
 54.24         58 
 54.26         61 
 54.28         72 
 54.3          58 
 54.32         58 
 54.34         57 
 54.36         66 
 54.38         63 
 54.4          56 
 54.42         68 
 54.44         55 
 54.46         55 
 54.48         50 
 54.5          58 
 54.52         67 
 54.54         54 
 54.56         55 
 54.58         60 
 54.6          58 
 54.62         74 
 54.64         57 
 54.66         69 
 54.68         57 
 54.7          54 
 54.72         48 
 54.74         52 
 54.76         46 
 54.78         63 
 54.8          51 
 54.82         51 
 54.84         47 
 54.86         50 
 54.88         62 
 54.9          51 
 54.92         56 
 54.94         51 
 54.96         49 
 54.98         51 
 55            48 
 55.02         45 
 55.04         51 
 55.06         61 
 55.08         36 
 55.1          57 
 55.12         47 
 55.14         47 
 55.16         57 
 55.18         39 
 55.2          62 
 55.22         49 
 55.24         51 
 55.26         43 
 55.28         61 
 55.3          48 
 55.32         63 
 55.34         43 
 55.36         61 
 55.38         42 
 55.4          53 
 55.42         62 
 55.44         47 
 55.46         51 
 55.48         36 
 55.5          58 
 55.52         51 
 55.54         54 
 55.56         36 
 55.58         50 
 55.6          49 
 55.62         57 
 55.64         40 
 55.66         50 
 55.68         44 
 55.7          50 
 55.72         54 
 55.74         30 
 55.76         58 
 55.78         44 
 55.8          52 
 55.82         44 
 55.84         59 
 55.86         50 
 55.88         42 
 55.9          53 
 55.92         74 
 55.94         53 
 55.96         51 
 55.98         59 
 56            56 
 56.02         52 
 56.04         68 
 56.06         63 
 56.08         49 
 56.1          64 
 56.12         64 
 56.14         60 
 56.16         45 
 56.18         57 
 56.2          58 
 56.22         51 
 56.24         71 
 56.26         71 
 56.28         72 
 56.3          82 
 56.32         89 
 56.34         68 
 56.36         74 
 56.38         60 
 56.4          70 
 56.42         73 
 56.44         97 
 56.46         93 
 56.48         89 
 56.5          107 
 56.52         128 
 56.54         113 
 56.56         129 
 56.58         140 
 56.6          155 
 56.62         159 
 56.64         204 
 56.66         200 
 56.68         255 
 56.7          277 
 56.72         283 
 56.74         329 
 56.76         392 
 56.78         422 
 56.8          461 
 56.82         449 
 56.84         503 
 56.86         570 
 56.88         561 
 56.9          624 
 56.92         657 
 56.94         647 
 56.96         691 
 56.98         726 
 57            696 
 57.02         768 
 57.04         721 
 57.06         761 
 57.08         732 
 57.1          711 
 57.12         728 
 57.14         646 
 57.16         640 
 57.18         656 
 57.2          593 
 57.22         613 
 57.24         561 
 57.26         515 
 57.28         464 
 57.3          456 
 57.32         435 
 57.34         441 
 57.36         454 
 57.38         425 
 57.4          417 
 57.42         383 
 57.44         388 
 57.46         395 
 57.48         332 
 57.5          362 
 57.52         351 
 57.54         318 
 57.56         361 
 57.58         365 
 57.6          335 
 57.62         374 
 57.64         314 
 57.66         350 
 57.68         348 
 57.7          297 
 57.72         313 
 57.74         307 
 57.76         319 
 57.78         272 
 57.8          279 
 57.82         276 
 57.84         272 
 57.86         312 
 57.88         276 
 57.9          280 
 57.92         317 
 57.94         303 
 57.96         318 
 57.98         287 
 58            287 
 58.02         305 
 58.04         291 
 58.06         331 
 58.08         312 
 58.1          339 
 58.12         379 
 58.14         387 
 58.16         386 
 58.18         392 
 58.2          428 
 58.22         433 
 58.24         433 
 58.26         466 
 58.28         470 
 58.3          455 
 58.32         413 
 58.34         429 
 58.36         377 
 58.38         347 
 58.4          315 
 58.42         257 
 58.44         302 
 58.46         226 
 58.48         195 
 58.5          199 
 58.52         179 
 58.54         140 
 58.56         123 
 58.58         123 
 58.6          115 
 58.62         100 
 58.64         79 
 58.66         88 
 58.68         82 
 58.7          57 
 58.72         69 
 58.74         83 
 58.76         78 
 58.78         64 
 58.8          71 
 58.82         73 
 58.84         62 
 58.86         65 
 58.88         55 
 58.9          64 
 58.92         52 
 58.94         56 
 58.96         53 
 58.98         64 
 59            54 
 59.02         49 
 59.04         47 
 59.06         61 
 59.08         64 
 59.1          56 
 59.12         61 
 59.14         50 
 59.16         47 
 59.18         52 
 59.2          52 
 59.22         54 
 59.24         56 
 59.26         56 
 59.28         36 
 59.3          52 
 59.32         67 
 59.34         49 
 59.36         51 
 59.38         53 
 59.4          45 
 59.42         49 
 59.44         59 
 59.46         47 
 59.48         48 
 59.5          50 
 59.52         57 
 59.54         57 
 59.56         57 
 59.58         58 
 59.6          52 
 59.62         40 
 59.64         35 
 59.66         54 
 59.68         56 
 59.7          56 
 59.72         41 
 59.74         51 
 59.76         51 
 59.78         50 
 59.8          40 
 59.82         54 
 59.84         59 
 59.86         52 
 59.88         47 
 59.9          55 
 59.92         48 
 59.94         56 
 59.96         63 
 59.98         63 
 60            56 
 60.02         80 
 60.04         50 
 60.06         45 
 60.08         58 
 60.1          48 
 60.12         57 
 60.14         63 
 60.16         63 
 60.18         42 
 60.2          55 
 60.22         43 
 60.24         42 
 60.26         41 
 60.28         59 
 60.3          65 
 60.32         52 
 60.34         62 
 60.36         46 
 60.38         52 
 60.4          51 
 60.42         41 
 60.44         43 
 60.46         52 
 60.48         53 
 60.5          53 
 60.52         35 
 60.54         37 
 60.56         36 
 60.58         42 
 60.6          35 
 60.62         46 
 60.64         39 
 60.66         43 
 60.68         44 
 60.7          49 
 60.72         55 
 60.74         45 
 60.76         51 
 60.78         48 
 60.8          43 
 60.82         40 
 60.84         32 
 60.86         32 
 60.88         42 
 60.9          43 
 60.92         38 
 60.94         48 
 60.96         47 
 60.98         45 
 61            59 
 61.02         41 
 61.04         33 
 61.06         51 
 61.08         38 
 61.1          45 
 61.12         39 
 61.14         32 
 61.16         48 
 61.18         49 
 61.2          47 
 61.22         44 
 61.24         42 
 61.26         51 
 61.28         46 
 61.3          57 
 61.32         43 
 61.34         63 
 61.36         41 
 61.38         45 
 61.4          44 
 61.42         47 
 61.44         48 
 61.46         50 
 61.48         54 
 61.5          48 
 61.52         49 
 61.54         54 
 61.56         57 
 61.58         53 
 61.6          48 
 61.62         54 
 61.64         46 
 61.66         65 
 61.68         63 
 61.7          63 
 61.72         49 
 61.74         53 
 61.76         57 
 61.78         54 
 61.8          62 
 61.82         59 
 61.84         86 
 61.86         77 
 61.88         62 
 61.9          86 
 61.92         73 
 61.94         73 
 61.96         73 
 61.98         89 
 62            108 
 62.02         92 
 62.04         105 
 62.06         96 
 62.08         107 
 62.1          118 
 62.12         129 
 62.14         152 
 62.16         144 
 62.18         163 
 62.2          193 
 62.22         230 
 62.24         237 
 62.26         267 
 62.28         291 
 62.3          321 
 62.32         367 
 62.34         412 
 62.36         450 
 62.38         480 
 62.4          539 
 62.42         573 
 62.44         643 
 62.46         652 
 62.48         651 
 62.5          711 
 62.52         804 
 62.54         798 
 62.56         778 
 62.58         819 
 62.6          844 
 62.62         854 
 62.64         822 
 62.66         824 
 62.68         805 
 62.7          769 
 62.72         714 
 62.74         746 
 62.76         759 
 62.78         691 
 62.8          657 
 62.82         618 
 62.84         675 
 62.86         615 
 62.88         601 
 62.9          533 
 62.92         566 
 62.94         541 
 62.96         529 
 62.98         515 
 63            519 
 63.02         501 
 63.04         473 
 63.06         482 
 63.08         477 
 63.1          455 
 63.12         447 
 63.14         389 
 63.16         390 
 63.18         421 
 63.2          432 
 63.22         390 
 63.24         388 
 63.26         393 
 63.28         406 
 63.3          374 
 63.32         321 
 63.34         358 
 63.36         372 
 63.38         335 
 63.4          371 
 63.42         359 
 63.44         339 
 63.46         343 
 63.48         349 
 63.5          316 
 63.52         318 
 63.54         366 
 63.56         358 
 63.58         338 
 63.6          355 
 63.62         368 
 63.64         380 
 63.66         388 
 63.68         380 
 63.7          374 
 63.72         412 
 63.74         399 
 63.76         422 
 63.78         403 
 63.8          440 
 63.82         421 
 63.84         452 
 63.86         478 
 63.88         494 
 63.9          535 
 63.92         561 
 63.94         605 
 63.96         657 
 63.98         608 
 64            690 
 64.02         694 
 64.04         653 
 64.06         615 
 64.08         625 
 64.1          525 
 64.12         502 
 64.14         490 
 64.16         459 
 64.18         440 
 64.2          364 
 64.22         352 
 64.24         320 
 64.26         303 
 64.28         218 
 64.3          199 
 64.32         177 
 64.34         144 
 64.36         128 
 64.38         118 
 64.4          91 
 64.42         115 
 64.44         93 
 64.46         99 
 64.48         64 
 64.5          86 
 64.52         80 
 64.54         71 
 64.56         79 
 64.58         55 
 64.6          62 
 64.62         66 
 64.64         73 
 64.66         68 
 64.68         53 
 64.7          49 
 64.72         68 
 64.74         61 
 64.76         62 
 64.78         64 
 64.8          53 
 64.82         62 
 64.84         49 
 64.86         60 
 64.88         52 
 64.9          54 
 64.92         41 
 64.94         50 
 64.96         54 
 64.98         45 
 65            52 
 65.02         37 
 65.04         47 
 65.06         47 
 65.08         50 
 65.1          47 
 65.12         52 
 65.14         43 
 65.16         46 
 65.18         42 
 65.2          44 
 65.22         48 
 65.24         50 
 65.26         53 
 65.28         47 
 65.3          46 
 65.32         41 
 65.34         42 
 65.36         51 
 65.38         47 
 65.4          52 
 65.42         57 
 65.44         58 
 65.46         56 
 65.48         50 
 65.5          66 
 65.52         59 
 65.54         71 
 65.56         65 
 65.58         72 
 65.6          57 
 65.62         73 
 65.64         80 
 65.66         92 
 65.68         80 
 65.7          85 
 65.72         92 
 65.74         77 
 65.76         100 
 65.78         97 
 65.8          106 
 65.82         91 
 65.84         99 
 65.86         107 
 65.88         109 
 65.9          88 
 65.92         115 
 65.94         102 
 65.96         105 
 65.98         91 
 66            78 
 66.02         78 
 66.04         86 
 66.06         75 
 66.08         94 
 66.1          100 
 66.12         98 
 66.14         96 
 66.16         91 
 66.18         77 
 66.2          97 
 66.22         98 
 66.24         89 
 66.26         92 
 66.28         70 
 66.3          95 
 66.32         79 
 66.34         87 
 66.36         90 
 66.38         105 
 66.4          81 
 66.42         84 
 66.44         95 
 66.46         73 
 66.48         67 
 66.5          74 
 66.52         93 
 66.54         92 
 66.56         84 
 66.58         96 
 66.6          89 
 66.62         98 
 66.64         99 
 66.66         93 
 66.68         85 
 66.7          82 
 66.72         103 
 66.74         95 
 66.76         90 
 66.78         98 
 66.8          98 
 66.82         105 
 66.84         101 
 66.86         94 
 66.88         86 
 66.9          94 
 66.92         91 
 66.94         124 
 66.96         93 
 66.98         113 
 67            132 
 67.02         113 
 67.04         116 
 67.06         129 
 67.08         135 
 67.1          136 
 67.12         120 
 67.14         138 
 67.16         139 
 67.18         149 
 67.2          163 
 67.22         181 
 67.24         198 
 67.26         198 
 67.28         196 
 67.3          181 
 67.32         208 
 67.34         208 
 67.36         222 
 67.38         208 
 67.4          195 
 67.42         178 
 67.44         160 
 67.46         163 
 67.48         146 
 67.5          145 
 67.52         146 
 67.54         114 
 67.56         109 
 67.58         93 
 67.6          100 
 67.62         90 
 67.64         71 
 67.66         68 
 67.68         73 
 67.7          63 
 67.72         51 
 67.74         51 
 67.76         53 
 67.78         52 
 67.8          54 
 67.82         46 
 67.84         45 
 67.86         37 
 67.88         33 
 67.9          42 
 67.92         38 
 67.94         46 
 67.96         40 
 67.98         38 
 68            42 
 68.02         39 
 68.04         36 
 68.06         39 
 68.08         36 
 68.1          35 
 68.12         25 
 68.14         43 
 68.16         30 
 68.18         32 
 68.2          36 
 68.22         34 
 68.24         39 
 68.26         30 
 68.28         26 
 68.3          37 
 68.32         28 
 68.34         24 
 68.36         30 
 68.38         41 
 68.4          36 
 68.42         37 
 68.44         40 
 68.46         33 
 68.48         32 
 68.5          37 
 68.52         39 
 68.54         34 
 68.56         29 
 68.58         41 
 68.6          27 
 68.62         44 
 68.64         35 
 68.66         32 
 68.68         24 
 68.7          34 
 68.72         26 
 68.74         26 
 68.76         35 
 68.78         28 
 68.8          27 
 68.82         50 
 68.84         31 
 68.86         26 
 68.88         37 
 68.9          27 
 68.92         38 
 68.94         30 
 68.96         17 
 68.98         32 
 69            35 
 69.02         27 
 69.04         30 
 69.06         31 
 69.08         29 
 69.1          33 
 69.12         33 
 69.14         39 
 69.16         30 
 69.18         25 
 69.2          25 
 69.22         36 
 69.24         29 
 69.26         33 
 69.28         33 
 69.3          19 
 69.32         32 
 69.34         24 
 69.36         31 
 69.38         35 
 69.4          34 
 69.42         28 
 69.44         27 
 69.46         36 
 69.48         40 
 69.5          20 
 69.52         25 
 69.54         25 
 69.56         29 
 69.58         23 
 69.6          34 
 69.62         25 
 69.64         31 
 69.66         23 
 69.68         29 
 69.7          24 
 69.72         23 
 69.74         29 
 69.76         27 
 69.78         23 
 69.8          35 
 69.82         28 
 69.84         28 
 69.86         25 
 69.88         29 
 69.9          31 
 69.92         31 
 69.94         47 
 69.96         25 
 69.98         30 
 70            41 
 70.02         24 
 70.04         26 
 70.06         33 
 70.08         32 
 70.1          34 
 70.12         31 
 70.14         25 
 70.16         38 
 70.18         28 
 70.2          26 
 70.22         39 
 70.24         31 
 70.26         25 
 70.28         39 
 70.3          32 
 70.32         26 
 70.34         27 
 70.36         35 
 70.38         30 
 70.4          34 
 70.42         33 
 70.44         37 
 70.46         35 
 70.48         34 
 70.5          36 
 70.52         34 
 70.54         33 
 70.56         39 
 70.58         39 
 70.6          43 
 70.62         40 
 70.64         49 
 70.66         46 
 70.68         42 
 70.7          55 
 70.72         48 
 70.74         44 
 70.76         46 
 70.78         48 
 70.8          60 
 70.82         59 
 70.84         64 
 70.86         60 
 70.88         49 
 70.9          67 
 70.92         47 
 70.94         57 
 70.96         60 
 70.98         60 
 71            56 
 71.02         78 
 71.04         69 
 71.06         58 
 71.08         65 
 71.1          61 
 71.12         60 
 71.14         59 
 71.16         69 
 71.18         52 
 71.2          50 
 71.22         68 
 71.24         61 
 71.26         56 
 71.28         43 
 71.3          45 
 71.32         55 
 71.34         53 
 71.36         44 
 71.38         54 
 71.4          51 
 71.42         56 
 71.44         52 
 71.46         56 
 71.48         47 
 71.5          50 
 71.52         47 
 71.54         42 
 71.56         51 
 71.58         42 
 71.6          35 
 71.62         35 
 71.64         34 
 71.66         35 
 71.68         36 
 71.7          38 
 71.72         43 
 71.74         38 
 71.76         51 
 71.78         33 
 71.8          56 
 71.82         40 
 71.84         34 
 71.86         36 
 71.88         33 
 71.9          42 
 71.92         33 
 71.94         31 
 71.96         33 
 71.98         45 
 72            32 
 72.02         37 
 72.04         40 
 72.06         25 
 72.08         31 
 72.1          31 
 72.12         43 
 72.14         26 
 72.16         34 
 72.18         36 
 72.2          46 
 72.22         36 
 72.24         33 
 72.26         28 
 72.28         31 
 72.3          44 
 72.32         31 
 72.34         32 
 72.36         31 
 72.38         35 
 72.4          38 
 72.42         36 
 72.44         39 
 72.46         38 
 72.48         27 
 72.5          35 
 72.52         37 
 72.54         36 
 72.56         37 
 72.58         29 
 72.6          48 
 72.62         42 
 72.64         28 
 72.66         47 
 72.68         33 
 72.7          29 
 72.72         33 
 72.74         40 
 72.76         25 
 72.78         34 
 72.8          28 
 72.82         31 
 72.84         38 
 72.86         24 
 72.88         42 
 72.9          40 
 72.92         16 
 72.94         39 
 72.96         21 
 72.98         32 
 73            35 
 73.02         27 
 73.04         44 
 73.06         32 
 73.08         30 
 73.1          38 
 73.12         27 
 73.14         29 
 73.16         29 
 73.18         38 
 73.2          47 
 73.22         37 
 73.24         39 
 73.26         37 
 73.28         33 
 73.3          39 
 73.32         39 
 73.34         39 
 73.36         39 
 73.38         49 
 73.4          28 
 73.42         36 
 73.44         38 
 73.46         46 
 73.48         39 
 73.5          44 
 73.52         52 
 73.54         49 
 73.56         58 
 73.58         61 
 73.6          51 
 73.62         56 
 73.64         64 
 73.66         60 
 73.68         74 
 73.7          83 
 73.72         89 
 73.74         106 
 73.76         84 
 73.78         96 
 73.8          112 
 73.82         110 
 73.84         127 
 73.86         122 
 73.88         133 
 73.9          134 
 73.92         144 
 73.93999      134 
 73.96         128 
 73.98         129 
 74            138 
 74.02         161 
 74.04         139 
 74.06         140 
 74.08         136 
 74.1          157 
 74.12         159 
 74.14         146 
 74.16         161 
 74.18         129 
 74.2          137 
 74.22         128 
 74.24         115 
 74.26         110 
 74.28         145 
 74.3          134 
 74.32         154 
 74.34         126 
 74.36         118 
 74.38         129 
 74.4          111 
 74.42         129 
 74.43999      121 
 74.46         112 
 74.48         107 
 74.5          108 
 74.52         104 
 74.54         123 
 74.56         127 
 74.58         102 
 74.6          107 
 74.62         113 
 74.64         114 
 74.66         108 
 74.68         97 
 74.7          125 
 74.72         120 
 74.74         131 
 74.76         117 
 74.78         118 
 74.8          148 
 74.82         115 
 74.84         138 
 74.86         145 
 74.88         124 
 74.9          135 
 74.92         141 
 74.93999      153 
 74.96         148 
 74.98         145 
 75            156 
