LNMO auf LAGP 3 800°C Fast  Original Data
 3151 
 12            461 
 12.02         466 
 12.04         448 
 12.06         527 
 12.08         456 
 12.1          449 
 12.12         444 
 12.14         447 
 12.16         482 
 12.18         424 
 12.2          501 
 12.22         429 
 12.24         489 
 12.26         461 
 12.28         491 
 12.3          467 
 12.32         507 
 12.34         444 
 12.36         486 
 12.38         481 
 12.4          485 
 12.42         457 
 12.44         464 
 12.46         483 
 12.48         420 
 12.5          485 
 12.52         441 
 12.54         494 
 12.56         448 
 12.58         532 
 12.6          437 
 12.62         447 
 12.64         441 
 12.66         475 
 12.68         475 
 12.7          458 
 12.72         464 
 12.74         462 
 12.76         494 
 12.78         412 
 12.8          492 
 12.82         443 
 12.84         477 
 12.86         457 
 12.88         494 
 12.9          439 
 12.92         507 
 12.94         404 
 12.96         461 
 12.98         455 
 13            461 
 13.02         460 
 13.04         452 
 13.06         442 
 13.08         434 
 13.1          477 
 13.12         447 
 13.14         462 
 13.16         439 
 13.18         448 
 13.2          400 
 13.22         477 
 13.24         404 
 13.26         474 
 13.28         423 
 13.3          445 
 13.32         421 
 13.34         429 
 13.36         408 
 13.38         393 
 13.4          442 
 13.42         423 
 13.44         452 
 13.46         428 
 13.48         435 
 13.5          385 
 13.52         429 
 13.54         393 
 13.56         382 
 13.58         393 
 13.6          445 
 13.62         407 
 13.64         374 
 13.66         433 
 13.68         403 
 13.7          382 
 13.72         407 
 13.74         391 
 13.76         387 
 13.78         385 
 13.8          366 
 13.82         429 
 13.84         306 
 13.86         390 
 13.88         361 
 13.9          357 
 13.92         374 
 13.94         345 
 13.96         362 
 13.98         344 
 14            365 
 14.02         336 
 14.04         343 
 14.06         318 
 14.08         363 
 14.1          314 
 14.12         325 
 14.14         328 
 14.16         334 
 14.18         335 
 14.2          327 
 14.22         324 
 14.24         293 
 14.26         329 
 14.28         311 
 14.3          328 
 14.32         311 
 14.34         335 
 14.36         321 
 14.38         349 
 14.4          292 
 14.42         322 
 14.44         273 
 14.46         284 
 14.48         281 
 14.5          276 
 14.52         279 
 14.54         283 
 14.56         334 
 14.58         275 
 14.6          272 
 14.62         292 
 14.64         300 
 14.66         277 
 14.68         272 
 14.7          273 
 14.72         265 
 14.74         229 
 14.76         294 
 14.78         278 
 14.8          281 
 14.82         240 
 14.84         285 
 14.86         253 
 14.88         261 
 14.9          263 
 14.92         254 
 14.94         273 
 14.96         240 
 14.98         268 
 15            203 
 15.02         275 
 15.04         252 
 15.06         276 
 15.08         231 
 15.1          245 
 15.12         254 
 15.14         242 
 15.16         228 
 15.18         244 
 15.2          255 
 15.22         234 
 15.24         259 
 15.26         248 
 15.28         243 
 15.3          222 
 15.32         225 
 15.34         235 
 15.36         212 
 15.38         225 
 15.4          230 
 15.42         224 
 15.44         204 
 15.46         228 
 15.48         229 
 15.5          224 
 15.52         214 
 15.54         228 
 15.56         201 
 15.58         203 
 15.6          222 
 15.62         222 
 15.64         177 
 15.66         219 
 15.68         199 
 15.7          240 
 15.72         206 
 15.74         202 
 15.76         202 
 15.78         227 
 15.8          217 
 15.82         209 
 15.84         201 
 15.86         199 
 15.88         210 
 15.9          213 
 15.92         205 
 15.94         177 
 15.96         196 
 15.98         188 
 16            182 
 16.02         217 
 16.04         205 
 16.06         197 
 16.08         191 
 16.1          188 
 16.12         196 
 16.14         195 
 16.16         193 
 16.18         172 
 16.2          168 
 16.22         216 
 16.24         209 
 16.26         174 
 16.28         171 
 16.3          204 
 16.32         173 
 16.34         180 
 16.36         179 
 16.38         180 
 16.4          184 
 16.42         169 
 16.44         176 
 16.46         182 
 16.48         181 
 16.5          172 
 16.52         190 
 16.54         177 
 16.56         175 
 16.58         166 
 16.6          156 
 16.62         166 
 16.64         178 
 16.66         172 
 16.68         173 
 16.7          188 
 16.72         150 
 16.74         164 
 16.76         185 
 16.78         171 
 16.8          181 
 16.82         164 
 16.84         162 
 16.86         186 
 16.88         169 
 16.9          148 
 16.92         171 
 16.94         161 
 16.96         166 
 16.98         173 
 17            186 
 17.02         171 
 17.04         152 
 17.06         154 
 17.08         168 
 17.1          141 
 17.12         163 
 17.14         152 
 17.16         153 
 17.18         159 
 17.2          151 
 17.22         163 
 17.24         176 
 17.26         167 
 17.28         178 
 17.3          163 
 17.32         170 
 17.34         155 
 17.36         147 
 17.38         148 
 17.4          158 
 17.42         154 
 17.44         155 
 17.46         172 
 17.48         152 
 17.5          145 
 17.52         155 
 17.54         142 
 17.56         145 
 17.58         139 
 17.6          162 
 17.62         171 
 17.64         139 
 17.66         140 
 17.68         169 
 17.7          152 
 17.72         133 
 17.74         160 
 17.76         152 
 17.78         141 
 17.8          147 
 17.82         142 
 17.84         129 
 17.86         135 
 17.88         153 
 17.9          125 
 17.92         153 
 17.94         158 
 17.96         143 
 17.98         157 
 18            136 
 18.02         152 
 18.04         157 
 18.06         147 
 18.08         142 
 18.1          147 
 18.12         138 
 18.14         135 
 18.16         155 
 18.18         167 
 18.2          169 
 18.22         174 
 18.24         175 
 18.26         167 
 18.28         168 
 18.3          178 
 18.32         189 
 18.34         211 
 18.36         203 
 18.38         254 
 18.4          256 
 18.42         269 
 18.44         322 
 18.46         323 
 18.48         348 
 18.5          344 
 18.52         389 
 18.54         346 
 18.56         394 
 18.58         393 
 18.6          435 
 18.62         494 
 18.64         529 
 18.66         591 
 18.68         753 
 18.7          793 
 18.72         925 
 18.74         1029 
 18.76         1024 
 18.78         1026 
 18.8          948 
 18.82         786 
 18.84         635 
 18.86         515 
 18.88         358 
 18.9          306 
 18.92         252 
 18.94         236 
 18.96         205 
 18.98         181 
 19            157 
 19.02         160 
 19.04         179 
 19.06         160 
 19.08         145 
 19.1          141 
 19.12         155 
 19.14         150 
 19.16         146 
 19.18         150 
 19.2          107 
 19.22         118 
 19.24         110 
 19.26         146 
 19.28         116 
 19.3          114 
 19.32         147 
 19.34         145 
 19.36         131 
 19.38         132 
 19.4          104 
 19.42         112 
 19.44         144 
 19.46         125 
 19.48         132 
 19.5          112 
 19.52         114 
 19.54         104 
 19.56         116 
 19.58         126 
 19.6          128 
 19.62         109 
 19.64         117 
 19.66         109 
 19.68         119 
 19.7          114 
 19.72         121 
 19.74         133 
 19.76         100 
 19.78         122 
 19.8          129 
 19.82         110 
 19.84         103 
 19.86         140 
 19.88         111 
 19.9          109 
 19.92         114 
 19.94         106 
 19.96         132 
 19.98         116 
 20            103 
 20.02         93 
 20.04         117 
 20.06         101 
 20.08         107 
 20.1          83 
 20.12         106 
 20.14         96 
 20.16         93 
 20.18         105 
 20.2          116 
 20.22         118 
 20.24         109 
 20.26         92 
 20.28         101 
 20.3          111 
 20.32         118 
 20.34         114 
 20.36         100 
 20.38         122 
 20.4          121 
 20.42         94 
 20.44         108 
 20.46         111 
 20.48         115 
 20.5          107 
 20.52         112 
 20.54         94 
 20.56         110 
 20.58         123 
 20.6          87 
 20.62         109 
 20.64         114 
 20.66         104 
 20.68         107 
 20.7          119 
 20.72         116 
 20.74         116 
 20.76         104 
 20.78         121 
 20.8          117 
 20.82         119 
 20.84         121 
 20.86         112 
 20.88         120 
 20.9          112 
 20.92         143 
 20.94         125 
 20.96         127 
 20.98         115 
 21            113 
 21.02         147 
 21.04         133 
 21.06         125 
 21.08         124 
 21.1          140 
 21.12         112 
 21.14         147 
 21.16         134 
 21.18         149 
 21.2          150 
 21.22         116 
 21.24         128 
 21.26         165 
 21.28         158 
 21.3          136 
 21.32         154 
 21.34         142 
 21.36         147 
 21.38         147 
 21.4          143 
 21.42         128 
 21.44         134 
 21.46         126 
 21.48         124 
 21.5          121 
 21.52         130 
 21.54         103 
 21.56         109 
 21.58         86 
 21.6          106 
 21.62         98 
 21.64         94 
 21.66         102 
 21.68         82 
 21.7          99 
 21.72         96 
 21.74         78 
 21.76         92 
 21.78         106 
 21.8          105 
 21.82         95 
 21.84         89 
 21.86         94 
 21.88         92 
 21.9          103 
 21.92         94 
 21.94         88 
 21.96         101 
 21.98         110 
 22            102 
 22.02         97 
 22.04         69 
 22.06         79 
 22.08         90 
 22.1          75 
 22.12         100 
 22.14         74 
 22.16         81 
 22.18         69 
 22.2          78 
 22.22         117 
 22.24         80 
 22.26         75 
 22.28         82 
 22.3          91 
 22.32         77 
 22.34         97 
 22.36         92 
 22.38         76 
 22.4          73 
 22.42         75 
 22.44         77 
 22.46         89 
 22.48         80 
 22.5          94 
 22.52         86 
 22.54         93 
 22.56         107 
 22.58         82 
 22.6          74 
 22.62         73 
 22.64         85 
 22.66         93 
 22.68         82 
 22.7          111 
 22.72         89 
 22.74         90 
 22.76         84 
 22.78         89 
 22.8          82 
 22.82         78 
 22.84         87 
 22.86         110 
 22.88         78 
 22.9          81 
 22.92         89 
 22.94         87 
 22.96         84 
 22.98         99 
 23            82 
 23.02         80 
 23.04         79 
 23.06         98 
 23.08         95 
 23.1          89 
 23.12         84 
 23.14         78 
 23.16         92 
 23.18         90 
 23.2          86 
 23.22         81 
 23.24         101 
 23.26         83 
 23.28         101 
 23.3          97 
 23.32         83 
 23.34         95 
 23.36         102 
 23.38         83 
 23.4          95 
 23.42         86 
 23.44         83 
 23.46         92 
 23.48         85 
 23.5          86 
 23.52         84 
 23.54         91 
 23.56         98 
 23.58         106 
 23.6          108 
 23.62         83 
 23.64         98 
 23.66         89 
 23.68         76 
 23.7          102 
 23.72         96 
 23.74         102 
 23.76         95 
 23.78         88 
 23.8          88 
 23.82         82 
 23.84         80 
 23.86         91 
 23.88         85 
 23.9          67 
 23.92         79 
 23.94         62 
 23.96         59 
 23.98         88 
 24            75 
 24.02         76 
 24.04         83 
 24.06         79 
 24.08         80 
 24.1          84 
 24.12         74 
 24.14         79 
 24.16         81 
 24.18         71 
 24.2          90 
 24.22         79 
 24.24         77 
 24.26         74 
 24.28         64 
 24.3          65 
 24.32         61 
 24.34         84 
 24.36         83 
 24.38         96 
 24.4          79 
 24.42         76 
 24.44         75 
 24.46         60 
 24.48         91 
 24.5          69 
 24.52         62 
 24.54         61 
 24.56         76 
 24.58         87 
 24.6          80 
 24.62         81 
 24.64         83 
 24.66         71 
 24.68         75 
 24.7          82 
 24.72         75 
 24.74         66 
 24.76         59 
 24.78         70 
 24.8          55 
 24.82         67 
 24.84         62 
 24.86         58 
 24.88         63 
 24.9          67 
 24.92         67 
 24.94         64 
 24.96         63 
 24.98         83 
 25            62 
 25.02         76 
 25.04         80 
 25.06         71 
 25.08         72 
 25.1          73 
 25.12         77 
 25.14         68 
 25.16         75 
 25.18         87 
 25.2          60 
 25.22         64 
 25.24         81 
 25.26         71 
 25.28         66 
 25.3          51 
 25.32         60 
 25.34         67 
 25.36         63 
 25.38         70 
 25.4          66 
 25.42         71 
 25.44         44 
 25.46         70 
 25.48         59 
 25.5          69 
 25.52         82 
 25.54         69 
 25.56         63 
 25.58         63 
 25.6          56 
 25.62         59 
 25.64         51 
 25.66         58 
 25.68         57 
 25.7          66 
 25.72         64 
 25.74         75 
 25.76         62 
 25.78         70 
 25.8          64 
 25.82         68 
 25.84         65 
 25.86         72 
 25.88         77 
 25.9          58 
 25.92         51 
 25.94         57 
 25.96         69 
 25.98         48 
 26            75 
 26.02         67 
 26.04         65 
 26.06         70 
 26.08         59 
 26.1          67 
 26.12         58 
 26.14         55 
 26.16         68 
 26.18         61 
 26.2          58 
 26.22         60 
 26.24         59 
 26.26         53 
 26.28         70 
 26.3          56 
 26.32         71 
 26.34         58 
 26.36         53 
 26.38         75 
 26.4          72 
 26.42         55 
 26.44         66 
 26.46         59 
 26.48         70 
 26.5          73 
 26.52         71 
 26.54         64 
 26.56         61 
 26.58         58 
 26.6          69 
 26.62         63 
 26.64         64 
 26.66         59 
 26.68         77 
 26.7          56 
 26.72         68 
 26.74         75 
 26.76         56 
 26.78         55 
 26.8          47 
 26.82         65 
 26.84         61 
 26.86         56 
 26.88         65 
 26.9          74 
 26.92         58 
 26.94         55 
 26.96         61 
 26.98         64 
 27            63 
 27.02         72 
 27.04         54 
 27.06         68 
 27.08         54 
 27.1          51 
 27.12         52 
 27.14         49 
 27.16         56 
 27.18         40 
 27.2          58 
 27.22         62 
 27.24         54 
 27.26         50 
 27.28         69 
 27.3          63 
 27.32         50 
 27.34         56 
 27.36         61 
 27.38         55 
 27.4          55 
 27.42         56 
 27.44         59 
 27.46         65 
 27.48         59 
 27.5          59 
 27.52         58 
 27.54         62 
 27.56         57 
 27.58         57 
 27.6          62 
 27.62         60 
 27.64         66 
 27.66         59 
 27.68         53 
 27.7          62 
 27.72         52 
 27.74         57 
 27.76         54 
 27.78         59 
 27.8          60 
 27.82         52 
 27.84         60 
 27.86         54 
 27.88         51 
 27.9          60 
 27.92         53 
 27.94         56 
 27.96         61 
 27.98         57 
 28            62 
 28.02         54 
 28.04         55 
 28.06         67 
 28.08         50 
 28.1          59 
 28.12         62 
 28.14         55 
 28.16         69 
 28.18         48 
 28.2          50 
 28.22         52 
 28.24         52 
 28.26         58 
 28.28         64 
 28.3          56 
 28.32         59 
 28.34         58 
 28.36         46 
 28.38         53 
 28.4          71 
 28.42         59 
 28.44         55 
 28.46         58 
 28.48         71 
 28.5          62 
 28.52         83 
 28.54         81 
 28.56         76 
 28.58         71 
 28.6          54 
 28.62         61 
 28.64         79 
 28.66         84 
 28.68         79 
 28.7          66 
 28.72         77 
 28.74         69 
 28.76         76 
 28.78         99 
 28.8          74 
 28.82         99 
 28.84         84 
 28.86         85 
 28.88         91 
 28.9          65 
 28.92         63 
 28.94         74 
 28.96         60 
 28.98         69 
 29            78 
 29.02         69 
 29.04         86 
 29.06         70 
 29.08         86 
 29.1          74 
 29.12         95 
 29.14         95 
 29.16         86 
 29.18         75 
 29.2          101 
 29.22         83 
 29.24         80 
 29.26         102 
 29.28         101 
 29.3          75 
 29.32         95 
 29.34         91 
 29.36         91 
 29.38         93 
 29.4          89 
 29.42         84 
 29.44         76 
 29.46         77 
 29.48         62 
 29.5          66 
 29.52         55 
 29.54         56 
 29.56         58 
 29.58         63 
 29.6          55 
 29.62         53 
 29.64         60 
 29.66         40 
 29.68         50 
 29.7          39 
 29.72         63 
 29.74         49 
 29.76         46 
 29.78         46 
 29.8          54 
 29.82         46 
 29.84         46 
 29.86         70 
 29.88         54 
 29.9          62 
 29.92         57 
 29.94         49 
 29.96         42 
 29.98         60 
 30            52 
 30.02         46 
 30.04         60 
 30.06         50 
 30.08         68 
 30.1          91 
 30.12         52 
 30.14         70 
 30.16         78 
 30.18         85 
 30.2          77 
 30.22         97 
 30.24         85 
 30.26         96 
 30.28         117 
 30.3          122 
 30.32         162 
 30.34         146 
 30.36         137 
 30.38         127 
 30.4          130 
 30.42         117 
 30.44         116 
 30.46         101 
 30.48         93 
 30.5          94 
 30.52         82 
 30.54         64 
 30.56         66 
 30.58         72 
 30.6          68 
 30.62         66 
 30.64         65 
 30.66         82 
 30.68         73 
 30.7          63 
 30.72         67 
 30.74         79 
 30.76         69 
 30.78         78 
 30.8          65 
 30.82         67 
 30.84         81 
 30.86         76 
 30.88         75 
 30.9          67 
 30.92         84 
 30.94         63 
 30.96         56 
 30.98         63 
 31            61 
 31.02         45 
 31.04         59 
 31.06         55 
 31.08         61 
 31.1          52 
 31.12         43 
 31.14         42 
 31.16         48 
 31.18         44 
 31.2          55 
 31.22         40 
 31.24         63 
 31.26         49 
 31.28         48 
 31.3          59 
 31.32         52 
 31.34         50 
 31.36         57 
 31.38         45 
 31.4          50 
 31.42         43 
 31.44         56 
 31.46         48 
 31.48         53 
 31.5          43 
 31.52         57 
 31.54         39 
 31.56         47 
 31.58         45 
 31.6          47 
 31.62         49 
 31.64         43 
 31.66         58 
 31.68         57 
 31.7          53 
 31.72         53 
 31.74         58 
 31.76         52 
 31.78         56 
 31.8          49 
 31.82         52 
 31.84         49 
 31.86         46 
 31.88         47 
 31.9          39 
 31.92         50 
 31.94         34 
 31.96         32 
 31.98         45 
 32            36 
 32.02         43 
 32.04         47 
 32.06         41 
 32.08         40 
 32.1          42 
 32.12         49 
 32.14         39 
 32.16         46 
 32.18         48 
 32.2          55 
 32.22         34 
 32.24         48 
 32.26         33 
 32.28         45 
 32.3          40 
 32.32         36 
 32.34         44 
 32.36         67 
 32.38         44 
 32.4          43 
 32.42         49 
 32.44         46 
 32.46         50 
 32.48         36 
 32.5          38 
 32.52         38 
 32.54         41 
 32.56         49 
 32.58         39 
 32.6          46 
 32.62         46 
 32.64         41 
 32.66         32 
 32.68         44 
 32.7          44 
 32.72         54 
 32.74         45 
 32.76         37 
 32.78         42 
 32.8          37 
 32.82         50 
 32.84         37 
 32.86         54 
 32.88         52 
 32.9          34 
 32.92         37 
 32.94         45 
 32.96         36 
 32.98         48 
 33            59 
 33.02         44 
 33.04         36 
 33.06         38 
 33.08         44 
 33.1          52 
 33.12         35 
 33.14         44 
 33.16         44 
 33.18         34 
 33.2          42 
 33.22         42 
 33.24         40 
 33.26         41 
 33.28         47 
 33.3          44 
 33.32         44 
 33.34         43 
 33.36         31 
 33.38         43 
 33.4          38 
 33.42         50 
 33.44         39 
 33.46         38 
 33.48         47 
 33.5          34 
 33.52         39 
 33.54         31 
 33.56         44 
 33.58         37 
 33.6          50 
 33.62         56 
 33.64         49 
 33.66         51 
 33.68         43 
 33.7          42 
 33.72         47 
 33.74         43 
 33.76         46 
 33.78         49 
 33.8          48 
 33.82         46 
 33.84         47 
 33.86         38 
 33.88         47 
 33.9          50 
 33.92         31 
 33.94         43 
 33.96         42 
 33.98         41 
 34            51 
 34.02         50 
 34.04         41 
 34.06         34 
 34.08         46 
 34.1          48 
 34.12         55 
 34.14         40 
 34.16         54 
 34.18         48 
 34.2          53 
 34.22         47 
 34.24         44 
 34.26         46 
 34.28         49 
 34.3          41 
 34.32         50 
 34.34         59 
 34.36         38 
 34.38         46 
 34.4          52 
 34.42         47 
 34.44         45 
 34.46         39 
 34.48         37 
 34.5          47 
 34.52         62 
 34.54         40 
 34.56         44 
 34.58         50 
 34.6          45 
 34.62         45 
 34.64         38 
 34.66         51 
 34.68         39 
 34.7          39 
 34.72         34 
 34.74         32 
 34.76         35 
 34.78         48 
 34.8          55 
 34.82         43 
 34.84         49 
 34.86         54 
 34.88         49 
 34.9          65 
 34.92         58 
 34.94         43 
 34.96         59 
 34.98         66 
 35            59 
 35.02         44 
 35.04         54 
 35.06         63 
 35.08         57 
 35.1          58 
 35.12         69 
 35.14         68 
 35.16         64 
 35.18         58 
 35.2          52 
 35.22         51 
 35.24         62 
 35.26         75 
 35.28         69 
 35.3          70 
 35.32         72 
 35.34         88 
 35.36         84 
 35.38         94 
 35.4          68 
 35.42         98 
 35.44         93 
 35.46         93 
 35.48         109 
 35.5          109 
 35.52         116 
 35.54         159 
 35.56         171 
 35.58         219 
 35.6          239 
 35.62         258 
 35.64         339 
 35.66         370 
 35.68         409 
 35.7          418 
 35.72         441 
 35.74         460 
 35.76         488 
 35.78         470 
 35.8          475 
 35.82         419 
 35.84         414 
 35.86         439 
 35.88         386 
 35.9          344 
 35.92         309 
 35.94         306 
 35.96         331 
 35.98         320 
 36            281 
 36.02         317 
 36.04         299 
 36.06         364 
 36.08         345 
 36.1          364 
 36.12         384 
 36.14         415 
 36.16         441 
 36.18         547 
 36.2          634 
 36.22         719 
 36.24         787 
 36.26         879 
 36.28         933 
 36.3          910 
 36.32         973 
 36.34         886 
 36.36         796 
 36.38         693 
 36.4          604 
 36.42         456 
 36.44         394 
 36.46         291 
 36.48         280 
 36.5          209 
 36.52         159 
 36.54         161 
 36.56         151 
 36.58         112 
 36.6          86 
 36.62         94 
 36.64         103 
 36.66         96 
 36.68         67 
 36.7          73 
 36.72         70 
 36.74         68 
 36.76         63 
 36.78         57 
 36.8          58 
 36.82         60 
 36.84         49 
 36.86         58 
 36.88         58 
 36.9          58 
 36.92         47 
 36.94         59 
 36.96         64 
 36.98         52 
 37            43 
 37.02         50 
 37.04         58 
 37.06         46 
 37.08         63 
 37.1          50 
 37.12         52 
 37.14         54 
 37.16         53 
 37.18         59 
 37.2          63 
 37.22         57 
 37.24         73 
 37.26         63 
 37.28         69 
 37.3          88 
 37.32         97 
 37.34         86 
 37.36         100 
 37.38         111 
 37.4          110 
 37.42         125 
 37.44         136 
 37.46         127 
 37.48         110 
 37.5          114 
 37.52         112 
 37.54         118 
 37.56         125 
 37.58         103 
 37.6          125 
 37.62         101 
 37.64         130 
 37.66         124 
 37.68         103 
 37.7          120 
 37.72         141 
 37.74         129 
 37.76         127 
 37.78         150 
 37.8          166 
 37.82         159 
 37.84         165 
 37.86         180 
 37.88         194 
 37.9          198 
 37.92         238 
 37.94         250 
 37.96         233 
 37.98         254 
 38            232 
 38.02         241 
 38.04         183 
 38.06         168 
 38.08         140 
 38.1          125 
 38.12         95 
 38.14         78 
 38.16         81 
 38.18         62 
 38.2          48 
 38.22         59 
 38.24         49 
 38.26         48 
 38.28         44 
 38.3          44 
 38.32         47 
 38.34         52 
 38.36         40 
 38.38         40 
 38.4          43 
 38.42         39 
 38.44         38 
 38.46         30 
 38.48         36 
 38.5          33 
 38.52         35 
 38.54         45 
 38.56         39 
 38.58         26 
 38.6          39 
 38.62         34 
 38.64         39 
 38.66         36 
 38.68         42 
 38.7          38 
 38.72         52 
 38.74         41 
 38.76         51 
 38.78         33 
 38.8          39 
 38.82         39 
 38.84         40 
 38.86         41 
 38.88         53 
 38.9          36 
 38.92         52 
 38.94         46 
 38.96         44 
 38.98         49 
 39            41 
 39.02         56 
 39.04         35 
 39.06         40 
 39.08         40 
 39.1          41 
 39.12         45 
 39.14         43 
 39.16         34 
 39.18         36 
 39.2          45 
 39.22         37 
 39.24         44 
 39.26         47 
 39.28         45 
 39.3          44 
 39.32         42 
 39.34         31 
 39.36         28 
 39.38         42 
 39.4          41 
 39.42         37 
 39.44         40 
 39.46         38 
 39.48         41 
 39.5          38 
 39.52         44 
 39.54         33 
 39.56         38 
 39.58         55 
 39.6          39 
 39.62         38 
 39.64         21 
 39.66         28 
 39.68         27 
 39.7          35 
 39.72         36 
 39.74         31 
 39.76         37 
 39.78         32 
 39.8          45 
 39.82         34 
 39.84         41 
 39.86         37 
 39.88         40 
 39.9          32 
 39.92         30 
 39.94         30 
 39.96         26 
 39.98         30 
 40            32 
 40.02         38 
 40.04         34 
 40.06         40 
 40.08         40 
 40.1          32 
 40.12         26 
 40.14         36 
 40.16         36 
 40.18         31 
 40.2          33 
 40.22         36 
 40.24         42 
 40.26         29 
 40.28         30 
 40.3          43 
 40.32         35 
 40.34         41 
 40.36         35 
 40.38         28 
 40.4          29 
 40.42         38 
 40.44         33 
 40.46         34 
 40.48         31 
 40.5          38 
 40.52         39 
 40.54         21 
 40.56         33 
 40.58         21 
 40.6          31 
 40.62         28 
 40.64         38 
 40.66         31 
 40.68         32 
 40.7          29 
 40.72         33 
 40.74         33 
 40.76         38 
 40.78         38 
 40.8          25 
 40.82         23 
 40.84         29 
 40.86         39 
 40.88         29 
 40.9          24 
 40.92         27 
 40.94         26 
 40.96         37 
 40.98         31 
 41            39 
 41.02         25 
 41.04         25 
 41.06         33 
 41.08         22 
 41.1          36 
 41.12         37 
 41.14         30 
 41.16         36 
 41.18         41 
 41.2          31 
 41.22         23 
 41.24         38 
 41.26         29 
 41.28         30 
 41.3          21 
 41.32         29 
 41.34         32 
 41.36         29 
 41.38         28 
 41.4          27 
 41.42         26 
 41.44         39 
 41.46         37 
 41.48         36 
 41.5          28 
 41.52         44 
 41.54         39 
 41.56         42 
 41.58         35 
 41.6          24 
 41.62         28 
 41.64         29 
 41.66         30 
 41.68         32 
 41.7          34 
 41.72         27 
 41.74         42 
 41.76         47 
 41.78         29 
 41.8          23 
 41.82         30 
 41.84         29 
 41.86         40 
 41.88         40 
 41.9          34 
 41.92         32 
 41.94         37 
 41.96         22 
 41.98         39 
 42            44 
 42.02         31 
 42.04         43 
 42.06         33 
 42.08         24 
 42.1          34 
 42.12         28 
 42.14         31 
 42.16         35 
 42.18         30 
 42.2          36 
 42.22         37 
 42.24         32 
 42.26         29 
 42.28         32 
 42.3          31 
 42.32         31 
 42.34         32 
 42.36         32 
 42.38         40 
 42.4          51 
 42.42         49 
 42.44         35 
 42.46         46 
 42.48         57 
 42.5          51 
 42.52         51 
 42.54         62 
 42.56         39 
 42.58         60 
 42.6          44 
 42.62         39 
 42.64         53 
 42.66         41 
 42.68         48 
 42.7          49 
 42.72         46 
 42.74         50 
 42.76         42 
 42.78         44 
 42.8          62 
 42.82         56 
 42.84         54 
 42.86         51 
 42.88         64 
 42.9          46 
 42.92         60 
 42.94         45 
 42.96         61 
 42.98         60 
 43            69 
 43.02         68 
 43.04         68 
 43.06         83 
 43.08         72 
 43.1          79 
 43.12         89 
 43.14         104 
 43.16         82 
 43.18         102 
 43.2          101 
 43.22         115 
 43.24         144 
 43.26         151 
 43.28         176 
 43.3          163 
 43.32         198 
 43.34         216 
 43.36         201 
 43.38         219 
 43.4          290 
 43.42         277 
 43.44         274 
 43.46         301 
 43.48         320 
 43.5          346 
 43.52         341 
 43.54         321 
 43.56         316 
 43.58         323 
 43.6          351 
 43.62         336 
 43.64         342 
 43.66         302 
 43.68         315 
 43.7          361 
 43.72         356 
 43.74         399 
 43.76         416 
 43.78         386 
 43.8          429 
 43.82         436 
 43.84         455 
 43.86         501 
 43.88         540 
 43.9          573 
 43.92         567 
 43.94         660 
 43.96         642 
 43.98         676 
 44            717 
 44.02         809 
 44.04         864 
 44.06         845 
 44.08         939 
 44.1          984 
 44.12         955 
 44.14         971 
 44.16         872 
 44.18         811 
 44.2          746 
 44.22         674 
 44.24         596 
 44.26         537 
 44.28         428 
 44.3          392 
 44.32         298 
 44.34         234 
 44.36         228 
 44.38         196 
 44.4          159 
 44.42         151 
 44.44         119 
 44.46         135 
 44.48         98 
 44.5          85 
 44.52         74 
 44.54         79 
 44.56         64 
 44.58         71 
 44.6          53 
 44.62         72 
 44.64         58 
 44.66         56 
 44.68         60 
 44.7          49 
 44.72         50 
 44.74         42 
 44.76         50 
 44.78         55 
 44.8          34 
 44.82         35 
 44.84         36 
 44.86         37 
 44.88         36 
 44.9          43 
 44.92         34 
 44.94         45 
 44.96         39 
 44.98         35 
 45            34 
 45.02         47 
 45.04         43 
 45.06         38 
 45.08         39 
 45.1          31 
 45.12         35 
 45.14         47 
 45.16         34 
 45.18         44 
 45.2          32 
 45.22         40 
 45.24         37 
 45.26         40 
 45.28         28 
 45.3          30 
 45.32         27 
 45.34         35 
 45.36         31 
 45.38         24 
 45.4          26 
 45.42         38 
 45.44         36 
 45.46         28 
 45.48         34 
 45.5          31 
 45.52         31 
 45.54         33 
 45.56         32 
 45.58         32 
 45.6          26 
 45.62         28 
 45.64         30 
 45.66         31 
 45.68         34 
 45.7          30 
 45.72         27 
 45.74         31 
 45.76         24 
 45.78         28 
 45.8          31 
 45.82         32 
 45.84         20 
 45.86         29 
 45.88         29 
 45.9          40 
 45.92         30 
 45.94         29 
 45.96         47 
 45.98         29 
 46            32 
 46.02         29 
 46.04         21 
 46.06         30 
 46.08         27 
 46.1          30 
 46.12         28 
 46.14         40 
 46.16         33 
 46.18         38 
 46.2          32 
 46.22         29 
 46.24         31 
 46.26         33 
 46.28         35 
 46.3          37 
 46.32         36 
 46.34         39 
 46.36         30 
 46.38         25 
 46.4          33 
 46.42         29 
 46.44         33 
 46.46         40 
 46.48         37 
 46.5          30 
 46.52         41 
 46.54         44 
 46.56         29 
 46.58         32 
 46.6          32 
 46.62         30 
 46.64         43 
 46.66         35 
 46.68         35 
 46.7          36 
 46.72         32 
 46.74         28 
 46.76         43 
 46.78         51 
 46.8          42 
 46.82         59 
 46.84         34 
 46.86         40 
 46.88         49 
 46.9          43 
 46.92         45 
 46.94         41 
 46.96         51 
 46.98         41 
 47            49 
 47.02         35 
 47.04         36 
 47.06         44 
 47.08         35 
 47.1          44 
 47.12         43 
 47.14         33 
 47.16         32 
 47.18         52 
 47.2          36 
 47.22         38 
 47.24         34 
 47.26         47 
 47.28         38 
 47.3          46 
 47.32         44 
 47.34         42 
 47.36         34 
 47.38         42 
 47.4          33 
 47.42         47 
 47.44         49 
 47.46         40 
 47.48         45 
 47.5          39 
 47.52         61 
 47.54         48 
 47.56         45 
 47.58         49 
 47.6          50 
 47.62         54 
 47.64         61 
 47.66         61 
 47.68         38 
 47.7          53 
 47.72         52 
 47.74         54 
 47.76         54 
 47.78         45 
 47.8          52 
 47.82         56 
 47.84         70 
 47.86         58 
 47.88         47 
 47.9          58 
 47.92         77 
 47.94         79 
 47.96         77 
 47.98         79 
 48            70 
 48.02         82 
 48.04         70 
 48.06         81 
 48.08         68 
 48.1          81 
 48.12         89 
 48.14         100 
 48.16         111 
 48.18         120 
 48.2          126 
 48.22         134 
 48.24         167 
 48.26         175 
 48.28         176 
 48.3          165 
 48.32         174 
 48.34         176 
 48.36         164 
 48.38         152 
 48.4          145 
 48.42         143 
 48.44         121 
 48.46         94 
 48.48         104 
 48.5          92 
 48.52         65 
 48.54         64 
 48.56         52 
 48.58         49 
 48.6          56 
 48.62         38 
 48.64         41 
 48.66         31 
 48.68         35 
 48.7          40 
 48.72         34 
 48.74         29 
 48.76         36 
 48.78         43 
 48.8          30 
 48.82         26 
 48.84         28 
 48.86         35 
 48.88         34 
 48.9          22 
 48.92         33 
 48.94         20 
 48.96         39 
 48.98         29 
 49            38 
 49.02         26 
 49.04         26 
 49.06         20 
 49.08         40 
 49.1          34 
 49.12         21 
 49.14         34 
 49.16         34 
 49.18         22 
 49.2          25 
 49.22         23 
 49.24         31 
 49.26         26 
 49.28         25 
 49.3          28 
 49.32         35 
 49.34         28 
 49.36         24 
 49.38         34 
 49.4          31 
 49.42         30 
 49.44         36 
 49.46         22 
 49.48         19 
 49.5          27 
 49.52         29 
 49.54         30 
 49.56         27 
 49.58         24 
 49.6          32 
 49.62         29 
 49.64         19 
 49.66         21 
 49.68         27 
 49.7          22 
 49.72         26 
 49.74         20 
 49.76         37 
 49.78         31 
 49.8          25 
 49.82         36 
 49.84         24 
 49.86         25 
 49.88         24 
 49.9          34 
 49.92         31 
 49.94         34 
 49.96         31 
 49.98         32 
 50            25 
 50.02         27 
 50.04         31 
 50.06         44 
 50.08         20 
 50.1          37 
 50.12         36 
 50.14         35 
 50.16         38 
 50.18         28 
 50.2          34 
 50.22         29 
 50.24         44 
 50.26         36 
 50.28         39 
 50.3          35 
 50.32         34 
 50.34         30 
 50.36         44 
 50.38         41 
 50.4          30 
 50.42         28 
 50.44         33 
 50.46         40 
 50.48         31 
 50.5          24 
 50.52         42 
 50.54         35 
 50.56         32 
 50.58         29 
 50.6          27 
 50.62         31 
 50.64         35 
 50.66         47 
 50.68         28 
 50.7          27 
 50.72         31 
 50.74         33 
 50.76         24 
 50.78         29 
 50.8          24 
 50.82         27 
 50.84         38 
 50.86         26 
 50.88         30 
 50.9          31 
 50.92         23 
 50.94         38 
 50.96         22 
 50.98         35 
 51            32 
 51.02         28 
 51.04         30 
 51.06         26 
 51.08         31 
 51.1          22 
 51.12         29 
 51.14         24 
 51.16         27 
 51.18         35 
 51.2          24 
 51.22         23 
 51.24         29 
 51.26         29 
 51.28         25 
 51.3          24 
 51.32         26 
 51.34         29 
 51.36         28 
 51.38         30 
 51.4          29 
 51.42         32 
 51.44         27 
 51.46         40 
 51.48         28 
 51.5          27 
 51.52         31 
 51.54         27 
 51.56         23 
 51.58         39 
 51.6          32 
 51.62         27 
 51.64         21 
 51.66         21 
 51.68         27 
 51.7          29 
 51.72         33 
 51.74         21 
 51.76         27 
 51.78         40 
 51.8          29 
 51.82         33 
 51.84         39 
 51.86         33 
 51.88         22 
 51.9          22 
 51.92         31 
 51.94         17 
 51.96         20 
 51.98         28 
 52            28 
 52.02         20 
 52.04         34 
 52.06         27 
 52.08         25 
 52.1          24 
 52.12         35 
 52.14         18 
 52.16         33 
 52.18         31 
 52.2          22 
 52.22         21 
 52.24         28 
 52.26         26 
 52.28         29 
 52.3          22 
 52.32         33 
 52.34         19 
 52.36         25 
 52.38         35 
 52.4          22 
 52.42         32 
 52.44         15 
 52.46         32 
 52.48         32 
 52.5          28 
 52.52         26 
 52.54         23 
 52.56         20 
 52.58         22 
 52.6          31 
 52.62         19 
 52.64         23 
 52.66         32 
 52.68         18 
 52.7          18 
 52.72         23 
 52.74         33 
 52.76         25 
 52.78         33 
 52.8          33 
 52.82         23 
 52.84         29 
 52.86         27 
 52.88         27 
 52.9          28 
 52.92         37 
 52.94         24 
 52.96         33 
 52.98         24 
 53            26 
 53.02         33 
 53.04         28 
 53.06         28 
 53.08         26 
 53.1          30 
 53.12         29 
 53.14         36 
 53.16         19 
 53.18         27 
 53.2          36 
 53.22         19 
 53.24         26 
 53.26         28 
 53.28         26 
 53.3          23 
 53.32         20 
 53.34         35 
 53.36         27 
 53.38         38 
 53.4          22 
 53.42         35 
 53.44         26 
 53.46         33 
 53.48         23 
 53.5          26 
 53.52         27 
 53.54         39 
 53.56         25 
 53.58         25 
 53.6          25 
 53.62         31 
 53.64         33 
 53.66         35 
 53.68         41 
 53.7          39 
 53.72         48 
 53.74         38 
 53.76         44 
 53.78         29 
 53.8          37 
 53.82         46 
 53.84         53 
 53.86         58 
 53.88         48 
 53.9          51 
 53.92         39 
 53.94         37 
 53.96         32 
 53.98         40 
 54            43 
 54.02         43 
 54.04         31 
 54.06         37 
 54.08         33 
 54.1          46 
 54.12         43 
 54.14         42 
 54.16         33 
 54.18         36 
 54.2          30 
 54.22         30 
 54.24         30 
 54.26         30 
 54.28         28 
 54.3          28 
 54.32         32 
 54.34         40 
 54.36         35 
 54.38         37 
 54.4          27 
 54.42         28 
 54.44         23 
 54.46         21 
 54.48         24 
 54.5          29 
 54.52         29 
 54.54         26 
 54.56         36 
 54.58         33 
 54.6          32 
 54.62         27 
 54.64         42 
 54.66         29 
 54.68         42 
 54.7          34 
 54.72         37 
 54.74         45 
 54.76         34 
 54.78         26 
 54.8          36 
 54.82         39 
 54.84         32 
 54.86         39 
 54.88         38 
 54.9          25 
 54.92         17 
 54.94         35 
 54.96         29 
 54.98         21 
 55            19 
 55.02         24 
 55.04         27 
 55.06         33 
 55.08         23 
 55.1          16 
 55.12         29 
 55.14         23 
 55.16         21 
 55.18         23 
 55.2          28 
 55.22         31 
 55.24         34 
 55.26         34 
 55.28         35 
 55.3          27 
 55.32         26 
 55.34         25 
 55.36         31 
 55.38         29 
 55.4          34 
 55.42         23 
 55.44         20 
 55.46         23 
 55.48         31 
 55.5          26 
 55.52         25 
 55.54         31 
 55.56         22 
 55.58         28 
 55.6          35 
 55.62         25 
 55.64         28 
 55.66         23 
 55.68         19 
 55.7          40 
 55.72         28 
 55.74         37 
 55.76         33 
 55.78         26 
 55.8          23 
 55.82         33 
 55.84         32 
 55.86         29 
 55.88         22 
 55.9          38 
 55.92         21 
 55.94         27 
 55.96         23 
 55.98         28 
 56            41 
 56.02         30 
 56.04         30 
 56.06         18 
 56.08         30 
 56.1          32 
 56.12         28 
 56.14         26 
 56.16         13 
 56.18         28 
 56.2          34 
 56.22         26 
 56.24         23 
 56.26         30 
 56.28         51 
 56.3          24 
 56.32         27 
 56.34         37 
 56.36         34 
 56.38         41 
 56.4          31 
 56.42         33 
 56.44         26 
 56.46         33 
 56.48         37 
 56.5          39 
 56.52         32 
 56.54         37 
 56.56         43 
 56.58         30 
 56.6          33 
 56.62         27 
 56.64         34 
 56.66         32 
 56.68         39 
 56.7          46 
 56.72         56 
 56.74         41 
 56.76         40 
 56.78         44 
 56.8          38 
 56.82         46 
 56.84         61 
 56.86         42 
 56.88         46 
 56.9          49 
 56.92         46 
 56.94         66 
 56.96         60 
 56.98         53 
 57            45 
 57.02         53 
 57.04         49 
 57.06         58 
 57.08         48 
 57.1          71 
 57.12         65 
 57.14         71 
 57.16         75 
 57.18         93 
 57.2          101 
 57.22         95 
 57.24         87 
 57.26         101 
 57.28         105 
 57.3          124 
 57.32         159 
 57.34         116 
 57.36         114 
 57.38         137 
 57.4          143 
 57.42         158 
 57.44         149 
 57.46         163 
 57.48         150 
 57.5          158 
 57.52         145 
 57.54         161 
 57.56         149 
 57.58         130 
 57.6          134 
 57.62         136 
 57.64         124 
 57.66         111 
 57.68         137 
 57.7          127 
 57.72         141 
 57.74         115 
 57.76         120 
 57.78         99 
 57.8          120 
 57.82         127 
 57.84         112 
 57.86         112 
 57.88         118 
 57.9          142 
 57.92         119 
 57.94         116 
 57.96         136 
 57.98         125 
 58            136 
 58.02         124 
 58.04         135 
 58.06         119 
 58.08         140 
 58.1          160 
 58.12         162 
 58.14         162 
 58.16         176 
 58.18         207 
 58.2          209 
 58.22         234 
 58.24         251 
 58.26         318 
 58.28         332 
 58.3          357 
 58.32         398 
 58.34         412 
 58.36         388 
 58.38         412 
 58.4          376 
 58.42         366 
 58.44         380 
 58.46         344 
 58.48         349 
 58.5          286 
 58.52         261 
 58.54         261 
 58.56         223 
 58.58         199 
 58.6          165 
 58.62         129 
 58.64         110 
 58.66         85 
 58.68         96 
 58.7          94 
 58.72         88 
 58.74         59 
 58.76         74 
 58.78         50 
 58.8          47 
 58.82         44 
 58.84         66 
 58.86         47 
 58.88         36 
 58.9          34 
 58.92         50 
 58.94         25 
 58.96         37 
 58.98         40 
 59            37 
 59.02         33 
 59.04         31 
 59.06         32 
 59.08         36 
 59.1          34 
 59.12         37 
 59.14         33 
 59.16         29 
 59.18         26 
 59.2          34 
 59.22         29 
 59.24         35 
 59.26         21 
 59.28         35 
 59.3          36 
 59.32         29 
 59.34         35 
 59.36         31 
 59.38         34 
 59.4          26 
 59.42         30 
 59.44         39 
 59.46         37 
 59.48         41 
 59.5          30 
 59.52         29 
 59.54         30 
 59.56         30 
 59.58         36 
 59.6          29 
 59.62         41 
 59.64         34 
 59.66         28 
 59.68         35 
 59.7          19 
 59.72         44 
 59.74         36 
 59.76         23 
 59.78         36 
 59.8          35 
 59.82         33 
 59.84         31 
 59.86         27 
 59.88         42 
 59.9          32 
 59.92         41 
 59.94         51 
 59.96         30 
 59.98         50 
 60            37 
 60.02         48 
 60.04         41 
 60.06         41 
 60.08         44 
 60.1          34 
 60.12         34 
 60.14         50 
 60.16         33 
 60.18         41 
 60.2          41 
 60.22         38 
 60.24         38 
 60.26         30 
 60.28         36 
 60.3          39 
 60.32         33 
 60.34         48 
 60.36         38 
 60.38         43 
 60.4          30 
 60.42         34 
 60.44         24 
 60.46         33 
 60.48         37 
 60.5          41 
 60.52         28 
 60.54         35 
 60.56         49 
 60.58         36 
 60.6          22 
 60.62         34 
 60.64         34 
 60.66         39 
 60.68         37 
 60.7          40 
 60.72         22 
 60.74         37 
 60.76         26 
 60.78         29 
 60.8          30 
 60.82         35 
 60.84         32 
 60.86         34 
 60.88         23 
 60.9          33 
 60.92         36 
 60.94         34 
 60.96         36 
 60.98         33 
 61            32 
 61.02         28 
 61.04         18 
 61.06         27 
 61.08         32 
 61.1          18 
 61.12         23 
 61.14         23 
 61.16         33 
 61.18         38 
 61.2          23 
 61.22         28 
 61.24         36 
 61.26         24 
 61.28         28 
 61.3          24 
 61.32         25 
 61.34         22 
 61.36         28 
 61.38         27 
 61.4          37 
 61.42         36 
 61.44         35 
 61.46         25 
 61.48         26 
 61.5          30 
 61.52         23 
 61.54         38 
 61.56         23 
 61.58         21 
 61.6          21 
 61.62         42 
 61.64         29 
 61.66         42 
 61.68         30 
 61.7          30 
 61.72         27 
 61.74         24 
 61.76         39 
 61.78         40 
 61.8          26 
 61.82         35 
 61.84         26 
 61.86         35 
 61.88         36 
 61.9          30 
 61.92         27 
 61.94         28 
 61.96         31 
 61.98         23 
 62            29 
 62.02         32 
 62.04         39 
 62.06         42 
 62.08         34 
 62.1          28 
 62.12         27 
 62.14         22 
 62.16         33 
 62.18         45 
 62.2          42 
 62.22         34 
 62.24         34 
 62.26         31 
 62.28         31 
 62.3          31 
 62.32         46 
 62.34         33 
 62.36         32 
 62.38         37 
 62.4          30 
 62.42         42 
 62.44         40 
 62.46         32 
 62.48         32 
 62.5          47 
 62.52         40 
 62.54         54 
 62.56         49 
 62.58         47 
 62.6          63 
 62.62         48 
 62.64         70 
 62.66         56 
 62.68         68 
 62.7          65 
 62.72         65 
 62.74         61 
 62.76         82 
 62.78         74 
 62.8          90 
 62.82         91 
 62.84         103 
 62.86         109 
 62.88         116 
 62.9          117 
 62.92         140 
 62.94         139 
 62.96         145 
 62.98         150 
 63            182 
 63.02         186 
 63.04         173 
 63.06         179 
 63.08         195 
 63.1          213 
 63.12         204 
 63.14         195 
 63.16         202 
 63.18         200 
 63.2          209 
 63.22         223 
 63.24         199 
 63.26         192 
 63.28         221 
 63.3          228 
 63.32         227 
 63.34         214 
 63.36         193 
 63.38         207 
 63.4          224 
 63.42         196 
 63.44         199 
 63.46         207 
 63.48         208 
 63.5          174 
 63.52         185 
 63.54         207 
 63.56         185 
 63.58         240 
 63.6          208 
 63.62         208 
 63.64         200 
 63.66         231 
 63.68         246 
 63.7          224 
 63.72         240 
 63.74         244 
 63.76         253 
 63.78         258 
 63.8          273 
 63.82         314 
 63.84         281 
 63.86         314 
 63.88         300 
 63.9          320 
 63.92         367 
 63.94         365 
 63.96         432 
 63.98         456 
 64            500 
 64.02         539 
 64.04         606 
 64.06         658 
 64.08         678 
 64.1          733 
 64.12         696 
 64.14         631 
 64.16         618 
 64.18         522 
 64.2          555 
 64.22         523 
 64.24         439 
 64.26         454 
 64.28         398 
 64.3          410 
 64.32         267 
 64.34         304 
 64.36         289 
 64.38         243 
 64.4          207 
 64.42         151 
 64.44         131 
 64.46         127 
 64.48         105 
 64.5          78 
 64.52         76 
 64.54         82 
 64.56         75 
 64.58         73 
 64.6          54 
 64.62         63 
 64.64         69 
 64.66         56 
 64.68         45 
 64.7          39 
 64.72         56 
 64.74         54 
 64.76         56 
 64.78         64 
 64.8          43 
 64.82         53 
 64.84         38 
 64.86         49 
 64.88         45 
 64.9          41 
 64.92         47 
 64.94         37 
 64.96         46 
 64.98         41 
 65            38 
 65.02         45 
 65.04         38 
 65.06         29 
 65.08         42 
 65.1          42 
 65.12         32 
 65.14         49 
 65.16         40 
 65.18         35 
 65.2          34 
 65.22         40 
 65.24         37 
 65.26         39 
 65.28         35 
 65.3          35 
 65.32         37 
 65.34         32 
 65.36         33 
 65.38         40 
 65.4          38 
 65.42         26 
 65.44         35 
 65.46         31 
 65.48         31 
 65.5          29 
 65.52         31 
 65.54         25 
 65.56         30 
 65.58         30 
 65.6          26 
 65.62         24 
 65.64         21 
 65.66         27 
 65.68         31 
 65.7          29 
 65.72         27 
 65.74         33 
 65.76         34 
 65.78         29 
 65.8          25 
 65.82         26 
 65.84         26 
 65.86         33 
 65.88         14 
 65.9          29 
 65.92         30 
 65.94         28 
 65.96         30 
 65.98         22 
 66            25 
 66.02         34 
 66.04         34 
 66.06         33 
 66.08         36 
 66.1          48 
 66.12         31 
 66.14         42 
 66.16         36 
 66.18         46 
 66.2          36 
 66.22         44 
 66.24         35 
 66.26         36 
 66.28         50 
 66.3          45 
 66.32         46 
 66.34         56 
 66.36         40 
 66.38         44 
 66.4          57 
 66.42         49 
 66.44         46 
 66.46         52 
 66.48         53 
 66.5          52 
 66.52         62 
 66.54         47 
 66.56         61 
 66.58         40 
 66.6          60 
 66.62         55 
 66.64         39 
 66.66         50 
 66.68         51 
 66.7          45 
 66.72         56 
 66.74         61 
 66.76         35 
 66.78         45 
 66.8          55 
 66.82         54 
 66.84         47 
 66.86         65 
 66.88         58 
 66.9          62 
 66.92         41 
 66.94         59 
 66.96         71 
 66.98         68 
 67            54 
 67.02         49 
 67.04         67 
 67.06         71 
 67.08         85 
 67.1          72 
 67.12         96 
 67.14         82 
 67.16         97 
 67.18         87 
 67.2          102 
 67.22         106 
 67.24         128 
 67.26         131 
 67.28         132 
 67.3          163 
 67.32         177 
 67.34         199 
 67.36         210 
 67.38         206 
 67.4          231 
 67.42         247 
 67.44         226 
 67.46         231 
 67.48         200 
 67.5          200 
 67.52         189 
 67.54         185 
 67.56         184 
 67.58         135 
 67.6          177 
 67.62         131 
 67.64         130 
 67.66         107 
 67.68         94 
 67.7          91 
 67.72         60 
 67.74         65 
 67.76         60 
 67.78         55 
 67.8          42 
 67.82         46 
 67.84         53 
 67.86         38 
 67.88         39 
 67.9          40 
 67.92         34 
 67.94         36 
 67.96         36 
 67.98         35 
 68            32 
 68.02         26 
 68.04         25 
 68.06         33 
 68.08         38 
 68.1          26 
 68.12         29 
 68.14         24 
 68.16         27 
 68.18         34 
 68.2          24 
 68.22         36 
 68.24         20 
 68.26         23 
 68.28         31 
 68.3          28 
 68.32         23 
 68.34         29 
 68.36         16 
 68.38         30 
 68.4          34 
 68.42         32 
 68.44         29 
 68.46         21 
 68.48         38 
 68.5          20 
 68.52         26 
 68.54         30 
 68.56         26 
 68.58         21 
 68.6          24 
 68.62         20 
 68.64         27 
 68.66         26 
 68.68         32 
 68.7          36 
 68.72         36 
 68.74         23 
 68.76         26 
 68.78         17 
 68.8          18 
 68.82         31 
 68.84         16 
 68.86         34 
 68.88         17 
 68.9          19 
 68.92         30 
 68.94         22 
 68.96         24 
 68.98         18 
 69            23 
 69.02         19 
 69.04         23 
 69.06         22 
 69.08         21 
 69.1          22 
 69.12         22 
 69.14         19 
 69.16         26 
 69.18         20 
 69.2          22 
 69.22         15 
 69.24         22 
 69.26         17 
 69.28         16 
 69.3          28 
 69.32         26 
 69.34         29 
 69.36         28 
 69.38         19 
 69.4          14 
 69.42         21 
 69.44         22 
 69.46         22 
 69.48         31 
 69.5          22 
 69.52         22 
 69.54         35 
 69.56         15 
 69.58         24 
 69.6          26 
 69.62         25 
 69.64         38 
 69.66         29 
 69.68         18 
 69.7          22 
 69.72         25 
 69.74         14 
 69.76         28 
 69.78         20 
 69.8          18 
 69.82         29 
 69.84         24 
 69.86         28 
 69.88         24 
 69.9          24 
 69.92         24 
 69.94         26 
 69.96         28 
 69.98         25 
 70            27 
 70.02         24 
 70.04         22 
 70.06         27 
 70.08         20 
 70.1          22 
 70.12         21 
 70.14         17 
 70.16         20 
 70.18         20 
 70.2          27 
 70.22         24 
 70.24         29 
 70.26         26 
 70.28         26 
 70.3          18 
 70.32         26 
 70.34         21 
 70.36         22 
 70.38         12 
 70.4          17 
 70.42         33 
 70.44         24 
 70.46         26 
 70.48         13 
 70.5          23 
 70.52         21 
 70.54         19 
 70.56         15 
 70.58         18 
 70.6          21 
 70.62         20 
 70.64         20 
 70.66         27 
 70.68         24 
 70.7          28 
 70.72         19 
 70.74         20 
 70.76         20 
 70.78         26 
 70.8          24 
 70.82         15 
 70.84         15 
 70.86         31 
 70.88         22 
 70.9          20 
 70.92         24 
 70.94         23 
 70.96         19 
 70.98         23 
 71            24 
 71.02         29 
 71.04         26 
 71.06         27 
 71.08         25 
 71.1          19 
 71.12         20 
 71.14         29 
 71.16         19 
 71.18         15 
 71.2          26 
 71.22         32 
 71.24         26 
 71.26         36 
 71.28         37 
 71.3          29 
 71.32         27 
 71.34         34 
 71.36         27 
 71.38         26 
 71.4          32 
 71.42         30 
 71.44         32 
 71.46         26 
 71.48         43 
 71.5          29 
 71.52         33 
 71.54         29 
 71.56         26 
 71.58         44 
 71.6          34 
 71.62         21 
 71.64         36 
 71.66         25 
 71.68         22 
 71.7          21 
 71.72         15 
 71.74         18 
 71.76         25 
 71.78         22 
 71.8          22 
 71.82         25 
 71.84         25 
 71.86         24 
 71.88         33 
 71.9          22 
 71.92         14 
 71.94         25 
 71.96         25 
 71.98         20 
 72            26 
 72.02         21 
 72.04         20 
 72.06         28 
 72.08         34 
 72.1          31 
 72.12         23 
 72.14         21 
 72.16         22 
 72.18         21 
 72.2          20 
 72.22         22 
 72.24         26 
 72.26         22 
 72.28         28 
 72.3          31 
 72.32         28 
 72.34         27 
 72.36         27 
 72.38         27 
 72.4          36 
 72.42         26 
 72.44         23 
 72.46         30 
 72.48         24 
 72.5          28 
 72.52         34 
 72.54         34 
 72.56         22 
 72.58         25 
 72.6          32 
 72.62         35 
 72.64         34 
 72.66         27 
 72.68         23 
 72.7          24 
 72.72         18 
 72.74         28 
 72.76         33 
 72.78         24 
 72.8          27 
 72.82         18 
 72.84         24 
 72.86         32 
 72.88         24 
 72.9          20 
 72.92         25 
 72.94         29 
 72.96         19 
 72.98         24 
 73            29 
 73.02         23 
 73.04         32 
 73.06         16 
 73.08         24 
 73.1          23 
 73.12         27 
 73.14         16 
 73.16         34 
 73.18         27 
 73.2          22 
 73.22         16 
 73.24         12 
 73.26         25 
 73.28         25 
 73.3          25 
 73.32         28 
 73.34         26 
 73.36         27 
 73.38         25 
 73.4          18 
 73.42         21 
 73.44         21 
 73.46         21 
 73.48         29 
 73.5          22 
 73.52         27 
 73.54         21 
 73.56         22 
 73.58         29 
 73.6          27 
 73.62         29 
 73.64         37 
 73.66         23 
 73.68         18 
 73.7          23 
 73.72         22 
 73.74         21 
 73.76         24 
 73.78         30 
 73.8          25 
 73.82         24 
 73.84         25 
 73.86         22 
 73.88         28 
 73.9          32 
 73.92         17 
 73.93999      19 
 73.96         27 
 73.98         24 
 74            22 
 74.02         24 
 74.04         20 
 74.06         25 
 74.08         17 
 74.1          26 
 74.12         21 
 74.14         25 
 74.16         26 
 74.18         25 
 74.2          24 
 74.22         30 
 74.24         26 
 74.26         24 
 74.28         31 
 74.3          31 
 74.32         24 
 74.34         29 
 74.36         42 
 74.38         23 
 74.4          31 
 74.42         31 
 74.43999      32 
 74.46         39 
 74.48         39 
 74.5          41 
 74.52         40 
 74.54         42 
 74.56         37 
 74.58         49 
 74.6          44 
 74.62         55 
 74.64         29 
 74.66         39 
 74.68         47 
 74.7          37 
 74.72         50 
 74.74         44 
 74.76         52 
 74.78         58 
 74.8          44 
 74.82         36 
 74.84         47 
 74.86         44 
 74.88         48 
 74.9          37 
 74.92         38 
 74.93999      32 
 74.96         36 
 74.98         41 
 75            47 
