LNMO 850°C Fast  Original Data
 3151 
 12            262 
 12.02         245 
 12.04         213 
 12.06         216 
 12.08         247 
 12.1          258 
 12.12         263 
 12.14         236 
 12.16         249 
 12.18         245 
 12.2          276 
 12.22         240 
 12.24         212 
 12.26         248 
 12.28         254 
 12.3          243 
 12.32         235 
 12.34         228 
 12.36         211 
 12.38         240 
 12.4          224 
 12.42         280 
 12.44         243 
 12.46         224 
 12.48         256 
 12.5          199 
 12.52         227 
 12.54         220 
 12.56         241 
 12.58         242 
 12.6          231 
 12.62         234 
 12.64         233 
 12.66         197 
 12.68         216 
 12.7          246 
 12.72         233 
 12.74         209 
 12.76         236 
 12.78         214 
 12.8          204 
 12.82         215 
 12.84         223 
 12.86         219 
 12.88         218 
 12.9          230 
 12.92         217 
 12.94         204 
 12.96         223 
 12.98         197 
 13            206 
 13.02         232 
 13.04         244 
 13.06         216 
 13.08         196 
 13.1          187 
 13.12         205 
 13.14         213 
 13.16         228 
 13.18         214 
 13.2          228 
 13.22         210 
 13.24         192 
 13.26         204 
 13.28         205 
 13.3          214 
 13.32         227 
 13.34         183 
 13.36         211 
 13.38         205 
 13.4          197 
 13.42         204 
 13.44         212 
 13.46         205 
 13.48         189 
 13.5          203 
 13.52         213 
 13.54         207 
 13.56         177 
 13.58         193 
 13.6          213 
 13.62         204 
 13.64         198 
 13.66         190 
 13.68         198 
 13.7          187 
 13.72         198 
 13.74         203 
 13.76         195 
 13.78         185 
 13.8          212 
 13.82         174 
 13.84         178 
 13.86         176 
 13.88         192 
 13.9          185 
 13.92         211 
 13.94         196 
 13.96         199 
 13.98         181 
 14            197 
 14.02         186 
 14.04         183 
 14.06         196 
 14.08         209 
 14.1          185 
 14.12         155 
 14.14         186 
 14.16         191 
 14.18         184 
 14.2          210 
 14.22         191 
 14.24         187 
 14.26         200 
 14.28         164 
 14.3          184 
 14.32         184 
 14.34         186 
 14.36         187 
 14.38         168 
 14.4          181 
 14.42         173 
 14.44         182 
 14.46         170 
 14.48         207 
 14.5          195 
 14.52         194 
 14.54         194 
 14.56         163 
 14.58         166 
 14.6          183 
 14.62         163 
 14.64         191 
 14.66         190 
 14.68         180 
 14.7          167 
 14.72         171 
 14.74         169 
 14.76         163 
 14.78         165 
 14.8          186 
 14.82         170 
 14.84         180 
 14.86         171 
 14.88         193 
 14.9          170 
 14.92         153 
 14.94         167 
 14.96         189 
 14.98         179 
 15            169 
 15.02         159 
 15.04         163 
 15.06         183 
 15.08         158 
 15.1          181 
 15.12         173 
 15.14         161 
 15.16         169 
 15.18         183 
 15.2          194 
 15.22         158 
 15.24         174 
 15.26         184 
 15.28         150 
 15.3          166 
 15.32         160 
 15.34         189 
 15.36         156 
 15.38         186 
 15.4          167 
 15.42         149 
 15.44         166 
 15.46         155 
 15.48         160 
 15.5          151 
 15.52         149 
 15.54         159 
 15.56         144 
 15.58         189 
 15.6          176 
 15.62         186 
 15.64         160 
 15.66         149 
 15.68         144 
 15.7          161 
 15.72         162 
 15.74         164 
 15.76         157 
 15.78         158 
 15.8          145 
 15.82         186 
 15.84         168 
 15.86         165 
 15.88         174 
 15.9          147 
 15.92         164 
 15.94         147 
 15.96         162 
 15.98         144 
 16            152 
 16.02         173 
 16.04         181 
 16.06         146 
 16.08         159 
 16.1          158 
 16.12         131 
 16.14         147 
 16.16         157 
 16.18         147 
 16.2          171 
 16.22         137 
 16.24         151 
 16.26         136 
 16.28         158 
 16.3          151 
 16.32         152 
 16.34         138 
 16.36         139 
 16.38         133 
 16.4          148 
 16.42         138 
 16.44         143 
 16.46         173 
 16.48         149 
 16.5          148 
 16.52         158 
 16.54         163 
 16.56         141 
 16.58         165 
 16.6          140 
 16.62         141 
 16.64         140 
 16.66         153 
 16.68         154 
 16.7          160 
 16.72         135 
 16.74         143 
 16.76         164 
 16.78         154 
 16.8          147 
 16.82         135 
 16.84         148 
 16.86         168 
 16.88         146 
 16.9          121 
 16.92         151 
 16.94         127 
 16.96         134 
 16.98         152 
 17            144 
 17.02         170 
 17.04         132 
 17.06         128 
 17.08         138 
 17.1          133 
 17.12         135 
 17.14         156 
 17.16         157 
 17.18         138 
 17.2          139 
 17.22         159 
 17.24         167 
 17.26         160 
 17.28         150 
 17.3          134 
 17.32         136 
 17.34         121 
 17.36         148 
 17.38         135 
 17.4          124 
 17.42         123 
 17.44         144 
 17.46         156 
 17.48         143 
 17.5          136 
 17.52         128 
 17.54         140 
 17.56         142 
 17.58         147 
 17.6          123 
 17.62         143 
 17.64         138 
 17.66         152 
 17.68         143 
 17.7          138 
 17.72         140 
 17.74         127 
 17.76         146 
 17.78         129 
 17.8          164 
 17.82         146 
 17.84         153 
 17.86         131 
 17.88         162 
 17.9          169 
 17.92         179 
 17.94         185 
 17.96         201 
 17.98         201 
 18            206 
 18.02         202 
 18.04         210 
 18.06         244 
 18.08         267 
 18.1          274 
 18.12         283 
 18.14         300 
 18.16         331 
 18.18         324 
 18.2          349 
 18.22         365 
 18.24         401 
 18.26         396 
 18.28         392 
 18.3          423 
 18.32         464 
 18.34         454 
 18.36         502 
 18.38         570 
 18.4          519 
 18.42         539 
 18.44         525 
 18.46         545 
 18.48         534 
 18.5          512 
 18.52         437 
 18.54         449 
 18.56         390 
 18.58         367 
 18.6          300 
 18.62         236 
 18.64         229 
 18.66         185 
 18.68         179 
 18.7          150 
 18.72         160 
 18.74         159 
 18.76         145 
 18.78         157 
 18.8          156 
 18.82         146 
 18.84         152 
 18.86         124 
 18.88         146 
 18.9          132 
 18.92         133 
 18.94         138 
 18.96         126 
 18.98         130 
 19            152 
 19.02         125 
 19.04         118 
 19.06         123 
 19.08         136 
 19.1          141 
 19.12         127 
 19.14         146 
 19.16         104 
 19.18         131 
 19.2          122 
 19.22         119 
 19.24         107 
 19.26         103 
 19.28         138 
 19.3          114 
 19.32         125 
 19.34         148 
 19.36         121 
 19.38         127 
 19.4          126 
 19.42         124 
 19.44         119 
 19.46         123 
 19.48         127 
 19.5          115 
 19.52         97 
 19.54         132 
 19.56         117 
 19.58         123 
 19.6          134 
 19.62         107 
 19.64         130 
 19.66         107 
 19.68         124 
 19.7          117 
 19.72         95 
 19.74         118 
 19.76         114 
 19.78         100 
 19.8          117 
 19.82         128 
 19.84         99 
 19.86         114 
 19.88         116 
 19.9          136 
 19.92         113 
 19.94         120 
 19.96         125 
 19.98         113 
 20            117 
 20.02         123 
 20.04         107 
 20.06         126 
 20.08         124 
 20.1          117 
 20.12         108 
 20.14         106 
 20.16         109 
 20.18         116 
 20.2          117 
 20.22         113 
 20.24         119 
 20.26         126 
 20.28         91 
 20.3          113 
 20.32         121 
 20.34         111 
 20.36         109 
 20.38         122 
 20.4          130 
 20.42         114 
 20.44         116 
 20.46         119 
 20.48         129 
 20.5          107 
 20.52         112 
 20.54         112 
 20.56         113 
 20.58         133 
 20.6          133 
 20.62         100 
 20.64         117 
 20.66         135 
 20.68         94 
 20.7          106 
 20.72         115 
 20.74         116 
 20.76         119 
 20.78         114 
 20.8          95 
 20.82         114 
 20.84         113 
 20.86         105 
 20.88         114 
 20.9          119 
 20.92         97 
 20.94         101 
 20.96         118 
 20.98         100 
 21            103 
 21.02         112 
 21.04         115 
 21.06         103 
 21.08         93 
 21.1          97 
 21.12         114 
 21.14         97 
 21.16         87 
 21.18         105 
 21.2          105 
 21.22         93 
 21.24         103 
 21.26         102 
 21.28         101 
 21.3          101 
 21.32         94 
 21.34         95 
 21.36         96 
 21.38         102 
 21.4          106 
 21.42         103 
 21.44         101 
 21.46         98 
 21.48         106 
 21.5          87 
 21.52         107 
 21.54         94 
 21.56         115 
 21.58         110 
 21.6          91 
 21.62         101 
 21.64         105 
 21.66         97 
 21.68         103 
 21.7          92 
 21.72         102 
 21.74         97 
 21.76         98 
 21.78         103 
 21.8          88 
 21.82         100 
 21.84         103 
 21.86         106 
 21.88         86 
 21.9          113 
 21.92         74 
 21.94         106 
 21.96         97 
 21.98         97 
 22            80 
 22.02         93 
 22.04         89 
 22.06         102 
 22.08         93 
 22.1          102 
 22.12         86 
 22.14         119 
 22.16         90 
 22.18         95 
 22.2          102 
 22.22         96 
 22.24         88 
 22.26         90 
 22.28         106 
 22.3          101 
 22.32         89 
 22.34         80 
 22.36         79 
 22.38         93 
 22.4          81 
 22.42         97 
 22.44         92 
 22.46         90 
 22.48         99 
 22.5          103 
 22.52         79 
 22.54         97 
 22.56         89 
 22.58         88 
 22.6          85 
 22.62         77 
 22.64         101 
 22.66         94 
 22.68         74 
 22.7          73 
 22.72         82 
 22.74         92 
 22.76         82 
 22.78         70 
 22.8          95 
 22.82         81 
 22.84         75 
 22.86         98 
 22.88         95 
 22.9          86 
 22.92         88 
 22.94         93 
 22.96         93 
 22.98         73 
 23            85 
 23.02         90 
 23.04         90 
 23.06         79 
 23.08         99 
 23.1          68 
 23.12         93 
 23.14         76 
 23.16         92 
 23.18         89 
 23.2          87 
 23.22         87 
 23.24         89 
 23.26         80 
 23.28         86 
 23.3          94 
 23.32         86 
 23.34         71 
 23.36         104 
 23.38         70 
 23.4          76 
 23.42         84 
 23.44         79 
 23.46         73 
 23.48         81 
 23.5          78 
 23.52         91 
 23.54         97 
 23.56         84 
 23.58         76 
 23.6          93 
 23.62         93 
 23.64         74 
 23.66         66 
 23.68         78 
 23.7          87 
 23.72         65 
 23.74         78 
 23.76         86 
 23.78         99 
 23.8          86 
 23.82         77 
 23.84         90 
 23.86         90 
 23.88         82 
 23.9          67 
 23.92         92 
 23.94         73 
 23.96         91 
 23.98         80 
 24            91 
 24.02         78 
 24.04         78 
 24.06         89 
 24.08         85 
 24.1          82 
 24.12         76 
 24.14         79 
 24.16         81 
 24.18         72 
 24.2          72 
 24.22         75 
 24.24         80 
 24.26         81 
 24.28         70 
 24.3          85 
 24.32         76 
 24.34         65 
 24.36         103 
 24.38         77 
 24.4          78 
 24.42         75 
 24.44         81 
 24.46         62 
 24.48         71 
 24.5          73 
 24.52         69 
 24.54         78 
 24.56         77 
 24.58         90 
 24.6          68 
 24.62         70 
 24.64         65 
 24.66         76 
 24.68         85 
 24.7          81 
 24.72         67 
 24.74         74 
 24.76         79 
 24.78         68 
 24.8          82 
 24.82         57 
 24.84         69 
 24.86         71 
 24.88         73 
 24.9          66 
 24.92         72 
 24.94         69 
 24.96         59 
 24.98         68 
 25            72 
 25.02         68 
 25.04         54 
 25.06         64 
 25.08         76 
 25.1          74 
 25.12         75 
 25.14         73 
 25.16         51 
 25.18         58 
 25.2          72 
 25.22         68 
 25.24         66 
 25.26         70 
 25.28         67 
 25.3          73 
 25.32         73 
 25.34         82 
 25.36         78 
 25.38         72 
 25.4          63 
 25.42         88 
 25.44         84 
 25.46         63 
 25.48         73 
 25.5          63 
 25.52         61 
 25.54         62 
 25.56         71 
 25.58         75 
 25.6          63 
 25.62         84 
 25.64         75 
 25.66         65 
 25.68         75 
 25.7          71 
 25.72         63 
 25.74         78 
 25.76         63 
 25.78         85 
 25.8          73 
 25.82         79 
 25.84         66 
 25.86         65 
 25.88         66 
 25.9          74 
 25.92         59 
 25.94         51 
 25.96         71 
 25.98         67 
 26            65 
 26.02         64 
 26.04         59 
 26.06         67 
 26.08         62 
 26.1          69 
 26.12         67 
 26.14         88 
 26.16         68 
 26.18         79 
 26.2          73 
 26.22         63 
 26.24         72 
 26.26         66 
 26.28         83 
 26.3          73 
 26.32         66 
 26.34         64 
 26.36         77 
 26.38         75 
 26.4          84 
 26.42         87 
 26.44         75 
 26.46         89 
 26.48         76 
 26.5          82 
 26.52         98 
 26.54         81 
 26.56         77 
 26.58         76 
 26.6          65 
 26.62         82 
 26.64         74 
 26.66         72 
 26.68         47 
 26.7          69 
 26.72         62 
 26.74         75 
 26.76         69 
 26.78         53 
 26.8          46 
 26.82         63 
 26.84         61 
 26.86         78 
 26.88         72 
 26.9          65 
 26.92         55 
 26.94         62 
 26.96         67 
 26.98         73 
 27            60 
 27.02         57 
 27.04         63 
 27.06         73 
 27.08         62 
 27.1          59 
 27.12         66 
 27.14         58 
 27.16         68 
 27.18         64 
 27.2          62 
 27.22         74 
 27.24         59 
 27.26         55 
 27.28         64 
 27.3          53 
 27.32         66 
 27.34         51 
 27.36         59 
 27.38         69 
 27.4          68 
 27.42         57 
 27.44         65 
 27.46         64 
 27.48         58 
 27.5          59 
 27.52         59 
 27.54         62 
 27.56         62 
 27.58         63 
 27.6          64 
 27.62         66 
 27.64         65 
 27.66         51 
 27.68         64 
 27.7          54 
 27.72         55 
 27.74         54 
 27.76         65 
 27.78         65 
 27.8          67 
 27.82         63 
 27.84         71 
 27.86         74 
 27.88         64 
 27.9          61 
 27.92         45 
 27.94         71 
 27.96         64 
 27.98         70 
 28            58 
 28.02         72 
 28.04         64 
 28.06         50 
 28.08         73 
 28.1          68 
 28.12         60 
 28.14         51 
 28.16         58 
 28.18         52 
 28.2          67 
 28.22         80 
 28.24         68 
 28.26         59 
 28.28         54 
 28.3          62 
 28.32         62 
 28.34         77 
 28.36         54 
 28.38         71 
 28.4          66 
 28.42         67 
 28.44         49 
 28.46         73 
 28.48         53 
 28.5          79 
 28.52         56 
 28.54         67 
 28.56         59 
 28.58         55 
 28.6          72 
 28.62         69 
 28.64         53 
 28.66         84 
 28.68         70 
 28.7          66 
 28.72         60 
 28.74         65 
 28.76         58 
 28.78         60 
 28.8          61 
 28.82         74 
 28.84         56 
 28.86         53 
 28.88         55 
 28.9          57 
 28.92         61 
 28.94         58 
 28.96         50 
 28.98         57 
 29            61 
 29.02         50 
 29.04         56 
 29.06         58 
 29.08         60 
 29.1          60 
 29.12         57 
 29.14         55 
 29.16         54 
 29.18         63 
 29.2          74 
 29.22         67 
 29.24         68 
 29.26         70 
 29.28         80 
 29.3          79 
 29.32         65 
 29.34         67 
 29.36         84 
 29.38         74 
 29.4          79 
 29.42         78 
 29.44         83 
 29.46         87 
 29.48         87 
 29.5          87 
 29.52         82 
 29.54         93 
 29.56         110 
 29.58         89 
 29.6          109 
 29.62         108 
 29.64         108 
 29.66         123 
 29.68         121 
 29.7          119 
 29.72         120 
 29.74         117 
 29.76         124 
 29.78         146 
 29.8          127 
 29.82         131 
 29.84         145 
 29.86         130 
 29.88         146 
 29.9          169 
 29.92         143 
 29.94         188 
 29.96         141 
 29.98         144 
 30            148 
 30.02         159 
 30.04         143 
 30.06         127 
 30.08         137 
 30.1          153 
 30.12         130 
 30.14         125 
 30.16         127 
 30.18         130 
 30.2          130 
 30.22         111 
 30.24         137 
 30.26         114 
 30.28         103 
 30.3          95 
 30.32         127 
 30.34         118 
 30.36         108 
 30.38         109 
 30.4          87 
 30.42         125 
 30.44         109 
 30.46         93 
 30.48         99 
 30.5          105 
 30.52         76 
 30.54         71 
 30.56         77 
 30.58         83 
 30.6          82 
 30.62         68 
 30.64         65 
 30.66         66 
 30.68         72 
 30.7          67 
 30.72         58 
 30.74         64 
 30.76         67 
 30.78         77 
 30.8          44 
 30.82         59 
 30.84         60 
 30.86         56 
 30.88         55 
 30.9          47 
 30.92         61 
 30.94         60 
 30.96         63 
 30.98         54 
 31            55 
 31.02         72 
 31.04         57 
 31.06         48 
 31.08         44 
 31.1          63 
 31.12         55 
 31.14         44 
 31.16         57 
 31.18         43 
 31.2          54 
 31.22         39 
 31.24         52 
 31.26         51 
 31.28         45 
 31.3          59 
 31.32         63 
 31.34         50 
 31.36         50 
 31.38         56 
 31.4          58 
 31.42         49 
 31.44         53 
 31.46         46 
 31.48         51 
 31.5          57 
 31.52         51 
 31.54         62 
 31.56         66 
 31.58         46 
 31.6          56 
 31.62         54 
 31.64         51 
 31.66         79 
 31.68         52 
 31.7          62 
 31.72         49 
 31.74         48 
 31.76         50 
 31.78         38 
 31.8          49 
 31.82         54 
 31.84         58 
 31.86         45 
 31.88         61 
 31.9          52 
 31.92         51 
 31.94         48 
 31.96         36 
 31.98         47 
 32            51 
 32.02         45 
 32.04         34 
 32.06         52 
 32.08         59 
 32.1          56 
 32.12         51 
 32.14         53 
 32.16         46 
 32.18         57 
 32.2          55 
 32.22         50 
 32.24         58 
 32.26         50 
 32.28         58 
 32.3          49 
 32.32         54 
 32.34         38 
 32.36         57 
 32.38         49 
 32.4          49 
 32.42         55 
 32.44         45 
 32.46         54 
 32.48         38 
 32.5          60 
 32.52         54 
 32.54         53 
 32.56         40 
 32.58         46 
 32.6          44 
 32.62         52 
 32.64         58 
 32.66         50 
 32.68         51 
 32.7          55 
 32.72         44 
 32.74         43 
 32.76         58 
 32.78         43 
 32.8          55 
 32.82         35 
 32.84         48 
 32.86         53 
 32.88         50 
 32.9          63 
 32.92         44 
 32.94         56 
 32.96         55 
 32.98         58 
 33            32 
 33.02         59 
 33.04         59 
 33.06         50 
 33.08         53 
 33.1          58 
 33.12         53 
 33.14         47 
 33.16         65 
 33.18         77 
 33.2          56 
 33.22         46 
 33.24         34 
 33.26         50 
 33.28         46 
 33.3          51 
 33.32         62 
 33.34         49 
 33.36         54 
 33.38         54 
 33.4          45 
 33.42         58 
 33.44         43 
 33.46         63 
 33.48         64 
 33.5          58 
 33.52         46 
 33.54         54 
 33.56         72 
 33.58         42 
 33.6          56 
 33.62         57 
 33.64         62 
 33.66         41 
 33.68         57 
 33.7          68 
 33.72         80 
 33.74         59 
 33.76         54 
 33.78         61 
 33.8          65 
 33.82         55 
 33.84         73 
 33.86         62 
 33.88         59 
 33.9          78 
 33.92         57 
 33.94         69 
 33.96         74 
 33.98         63 
 34            59 
 34.02         66 
 34.04         74 
 34.06         69 
 34.08         76 
 34.1          76 
 34.12         80 
 34.14         81 
 34.16         83 
 34.18         94 
 34.2          86 
 34.22         99 
 34.24         83 
 34.26         104 
 34.28         86 
 34.3          90 
 34.32         88 
 34.34         99 
 34.36         91 
 34.38         92 
 34.4          117 
 34.42         109 
 34.44         113 
 34.46         101 
 34.48         107 
 34.5          113 
 34.52         107 
 34.54         128 
 34.56         115 
 34.58         125 
 34.6          109 
 34.62         129 
 34.64         138 
 34.66         135 
 34.68         128 
 34.7          148 
 34.72         154 
 34.74         140 
 34.76         155 
 34.78         141 
 34.8          177 
 34.82         161 
 34.84         153 
 34.86         172 
 34.88         172 
 34.9          205 
 34.92         216 
 34.94         228 
 34.96         234 
 34.98         222 
 35            245 
 35.02         250 
 35.04         288 
 35.06         281 
 35.08         315 
 35.1          297 
 35.12         304 
 35.14         335 
 35.16         351 
 35.18         355 
 35.2          378 
 35.22         408 
 35.24         411 
 35.26         401 
 35.28         417 
 35.3          442 
 35.32         400 
 35.34         411 
 35.36         444 
 35.38         461 
 35.4          467 
 35.42         442 
 35.44         504 
 35.46         452 
 35.48         497 
 35.5          472 
 35.52         482 
 35.54         443 
 35.56         505 
 35.58         426 
 35.6          457 
 35.62         450 
 35.64         443 
 35.66         464 
 35.68         412 
 35.7          489 
 35.72         451 
 35.74         462 
 35.76         493 
 35.78         457 
 35.8          511 
 35.82         480 
 35.84         497 
 35.86         542 
 35.88         516 
 35.9          544 
 35.92         519 
 35.94         530 
 35.96         542 
 35.98         543 
 36            491 
 36.02         454 
 36.04         448 
 36.06         344 
 36.08         363 
 36.1          302 
 36.12         276 
 36.14         204 
 36.16         173 
 36.18         158 
 36.2          144 
 36.22         117 
 36.24         106 
 36.26         107 
 36.28         83 
 36.3          83 
 36.32         80 
 36.34         80 
 36.36         69 
 36.38         69 
 36.4          71 
 36.42         70 
 36.44         61 
 36.46         75 
 36.48         50 
 36.5          67 
 36.52         59 
 36.54         57 
 36.56         73 
 36.58         61 
 36.6          73 
 36.62         71 
 36.64         86 
 36.66         85 
 36.68         91 
 36.7          89 
 36.72         95 
 36.74         86 
 36.76         93 
 36.78         117 
 36.8          113 
 36.82         111 
 36.84         88 
 36.86         114 
 36.88         113 
 36.9          117 
 36.92         97 
 36.94         106 
 36.96         89 
 36.98         100 
 37            114 
 37.02         109 
 37.04         108 
 37.06         144 
 37.08         121 
 37.1          117 
 37.12         145 
 37.14         146 
 37.16         147 
 37.18         145 
 37.2          145 
 37.22         158 
 37.24         206 
 37.26         188 
 37.28         179 
 37.3          200 
 37.32         218 
 37.34         238 
 37.36         270 
 37.38         229 
 37.4          259 
 37.42         227 
 37.44         254 
 37.46         242 
 37.48         233 
 37.5          198 
 37.52         205 
 37.54         192 
 37.56         171 
 37.58         170 
 37.6          160 
 37.62         137 
 37.64         125 
 37.66         138 
 37.68         112 
 37.7          113 
 37.72         104 
 37.74         88 
 37.76         88 
 37.78         82 
 37.8          70 
 37.82         69 
 37.84         69 
 37.86         49 
 37.88         49 
 37.9          40 
 37.92         61 
 37.94         50 
 37.96         42 
 37.98         40 
 38            45 
 38.02         37 
 38.04         49 
 38.06         46 
 38.08         32 
 38.1          49 
 38.12         46 
 38.14         34 
 38.16         35 
 38.18         43 
 38.2          37 
 38.22         43 
 38.24         43 
 38.26         35 
 38.28         40 
 38.3          35 
 38.32         37 
 38.34         37 
 38.36         41 
 38.38         42 
 38.4          49 
 38.42         34 
 38.44         47 
 38.46         52 
 38.48         38 
 38.5          39 
 38.52         45 
 38.54         42 
 38.56         32 
 38.58         31 
 38.6          36 
 38.62         35 
 38.64         38 
 38.66         31 
 38.68         34 
 38.7          25 
 38.72         32 
 38.74         35 
 38.76         30 
 38.78         34 
 38.8          35 
 38.82         36 
 38.84         40 
 38.86         40 
 38.88         41 
 38.9          36 
 38.92         35 
 38.94         31 
 38.96         40 
 38.98         37 
 39            45 
 39.02         37 
 39.04         37 
 39.06         42 
 39.08         43 
 39.1          37 
 39.12         26 
 39.14         36 
 39.16         33 
 39.18         36 
 39.2          31 
 39.22         45 
 39.24         41 
 39.26         25 
 39.28         35 
 39.3          36 
 39.32         37 
 39.34         44 
 39.36         33 
 39.38         28 
 39.4          37 
 39.42         33 
 39.44         32 
 39.46         33 
 39.48         33 
 39.5          29 
 39.52         46 
 39.54         41 
 39.56         40 
 39.58         37 
 39.6          29 
 39.62         42 
 39.64         40 
 39.66         36 
 39.68         40 
 39.7          32 
 39.72         27 
 39.74         35 
 39.76         28 
 39.78         35 
 39.8          31 
 39.82         42 
 39.84         32 
 39.86         28 
 39.88         37 
 39.9          27 
 39.92         31 
 39.94         23 
 39.96         31 
 39.98         30 
 40            36 
 40.02         34 
 40.04         40 
 40.06         37 
 40.08         35 
 40.1          40 
 40.12         36 
 40.14         41 
 40.16         39 
 40.18         35 
 40.2          43 
 40.22         34 
 40.24         35 
 40.26         30 
 40.28         45 
 40.3          40 
 40.32         41 
 40.34         37 
 40.36         39 
 40.38         27 
 40.4          45 
 40.42         40 
 40.44         32 
 40.46         31 
 40.48         37 
 40.5          34 
 40.52         41 
 40.54         45 
 40.56         41 
 40.58         43 
 40.6          33 
 40.62         39 
 40.64         33 
 40.66         27 
 40.68         41 
 40.7          32 
 40.72         57 
 40.74         44 
 40.76         36 
 40.78         29 
 40.8          47 
 40.82         49 
 40.84         32 
 40.86         35 
 40.88         41 
 40.9          34 
 40.92         41 
 40.94         52 
 40.96         52 
 40.98         52 
 41            44 
 41.02         38 
 41.04         38 
 41.06         44 
 41.08         37 
 41.1          46 
 41.12         33 
 41.14         44 
 41.16         36 
 41.18         47 
 41.2          44 
 41.22         45 
 41.24         58 
 41.26         51 
 41.28         44 
 41.3          45 
 41.32         47 
 41.34         46 
 41.36         42 
 41.38         41 
 41.4          55 
 41.42         54 
 41.44         54 
 41.46         45 
 41.48         50 
 41.5          53 
 41.52         42 
 41.54         54 
 41.56         57 
 41.58         68 
 41.6          45 
 41.62         47 
 41.64         44 
 41.66         53 
 41.68         56 
 41.7          57 
 41.72         60 
 41.74         57 
 41.76         48 
 41.78         50 
 41.8          51 
 41.82         61 
 41.84         56 
 41.86         54 
 41.88         60 
 41.9          66 
 41.92         51 
 41.94         68 
 41.96         63 
 41.98         62 
 42            70 
 42.02         58 
 42.04         50 
 42.06         75 
 42.08         66 
 42.1          50 
 42.12         73 
 42.14         61 
 42.16         66 
 42.18         89 
 42.2          71 
 42.22         82 
 42.24         80 
 42.26         69 
 42.28         93 
 42.3          79 
 42.32         92 
 42.34         90 
 42.36         84 
 42.38         96 
 42.4          101 
 42.42         110 
 42.44         125 
 42.46         117 
 42.48         118 
 42.5          126 
 42.52         140 
 42.54         104 
 42.56         122 
 42.58         132 
 42.6          158 
 42.62         149 
 42.64         138 
 42.66         173 
 42.68         171 
 42.7          170 
 42.72         176 
 42.74         178 
 42.76         178 
 42.78         206 
 42.8          190 
 42.82         187 
 42.84         181 
 42.86         184 
 42.88         224 
 42.9          230 
 42.92         254 
 42.94         210 
 42.96         241 
 42.98         243 
 43            259 
 43.02         279 
 43.04         267 
 43.06         266 
 43.08         312 
 43.1          273 
 43.12         342 
 43.14         306 
 43.16         368 
 43.18         357 
 43.2          385 
 43.22         402 
 43.24         479 
 43.26         426 
 43.28         448 
 43.3          404 
 43.32         464 
 43.34         497 
 43.36         479 
 43.38         566 
 43.4          569 
 43.42         649 
 43.44         662 
 43.46         687 
 43.48         653 
 43.5          762 
 43.52         679 
 43.54         728 
 43.56         737 
 43.58         699 
 43.6          760 
 43.62         665 
 43.64         620 
 43.66         582 
 43.68         553 
 43.7          511 
 43.72         511 
 43.74         536 
 43.76         493 
 43.78         465 
 43.8          448 
 43.82         386 
 43.84         388 
 43.86         331 
 43.88         320 
 43.9          283 
 43.92         265 
 43.94         245 
 43.96         206 
 43.98         174 
 44            164 
 44.02         137 
 44.04         113 
 44.06         95 
 44.08         99 
 44.1          83 
 44.12         71 
 44.14         70 
 44.16         50 
 44.18         63 
 44.2          57 
 44.22         53 
 44.24         54 
 44.26         49 
 44.28         49 
 44.3          44 
 44.32         47 
 44.34         51 
 44.36         46 
 44.38         53 
 44.4          38 
 44.42         37 
 44.44         38 
 44.46         36 
 44.48         51 
 44.5          47 
 44.52         38 
 44.54         45 
 44.56         42 
 44.58         36 
 44.6          40 
 44.62         52 
 44.64         35 
 44.66         39 
 44.68         43 
 44.7          32 
 44.72         48 
 44.74         31 
 44.76         28 
 44.78         41 
 44.8          39 
 44.82         27 
 44.84         41 
 44.86         42 
 44.88         39 
 44.9          35 
 44.92         36 
 44.94         31 
 44.96         22 
 44.98         45 
 45            29 
 45.02         34 
 45.04         40 
 45.06         29 
 45.08         43 
 45.1          35 
 45.12         31 
 45.14         34 
 45.16         26 
 45.18         32 
 45.2          24 
 45.22         30 
 45.24         39 
 45.26         34 
 45.28         36 
 45.3          33 
 45.32         45 
 45.34         33 
 45.36         31 
 45.38         37 
 45.4          32 
 45.42         32 
 45.44         27 
 45.46         32 
 45.48         30 
 45.5          21 
 45.52         35 
 45.54         16 
 45.56         31 
 45.58         31 
 45.6          27 
 45.62         38 
 45.64         36 
 45.66         37 
 45.68         38 
 45.7          36 
 45.72         33 
 45.74         28 
 45.76         36 
 45.78         26 
 45.8          36 
 45.82         45 
 45.84         41 
 45.86         22 
 45.88         28 
 45.9          32 
 45.92         31 
 45.94         39 
 45.96         32 
 45.98         46 
 46            27 
 46.02         40 
 46.04         26 
 46.06         39 
 46.08         31 
 46.1          29 
 46.12         38 
 46.14         28 
 46.16         40 
 46.18         26 
 46.2          31 
 46.22         35 
 46.24         39 
 46.26         32 
 46.28         22 
 46.3          25 
 46.32         35 
 46.34         38 
 46.36         45 
 46.38         35 
 46.4          27 
 46.42         35 
 46.44         42 
 46.46         38 
 46.48         30 
 46.5          31 
 46.52         34 
 46.54         40 
 46.56         26 
 46.58         31 
 46.6          30 
 46.62         39 
 46.64         37 
 46.66         27 
 46.68         39 
 46.7          27 
 46.72         42 
 46.74         26 
 46.76         42 
 46.78         46 
 46.8          40 
 46.82         32 
 46.84         37 
 46.86         35 
 46.88         32 
 46.9          40 
 46.92         36 
 46.94         27 
 46.96         42 
 46.98         39 
 47            36 
 47.02         35 
 47.04         43 
 47.06         43 
 47.08         41 
 47.1          52 
 47.12         37 
 47.14         26 
 47.16         45 
 47.18         36 
 47.2          47 
 47.22         37 
 47.24         38 
 47.26         29 
 47.28         30 
 47.3          35 
 47.32         35 
 47.34         46 
 47.36         45 
 47.38         37 
 47.4          44 
 47.42         43 
 47.44         47 
 47.46         47 
 47.48         44 
 47.5          53 
 47.52         52 
 47.54         47 
 47.56         52 
 47.58         50 
 47.6          50 
 47.62         47 
 47.64         56 
 47.66         63 
 47.68         73 
 47.7          63 
 47.72         70 
 47.74         58 
 47.76         69 
 47.78         77 
 47.8          65 
 47.82         52 
 47.84         69 
 47.86         72 
 47.88         65 
 47.9          82 
 47.92         67 
 47.94         82 
 47.96         84 
 47.98         82 
 48            82 
 48.02         58 
 48.04         62 
 48.06         57 
 48.08         50 
 48.1          49 
 48.12         45 
 48.14         48 
 48.16         29 
 48.18         35 
 48.2          34 
 48.22         40 
 48.24         43 
 48.26         35 
 48.28         34 
 48.3          42 
 48.32         36 
 48.34         27 
 48.36         27 
 48.38         40 
 48.4          32 
 48.42         29 
 48.44         34 
 48.46         30 
 48.48         22 
 48.5          32 
 48.52         26 
 48.54         30 
 48.56         28 
 48.58         29 
 48.6          31 
 48.62         31 
 48.64         39 
 48.66         31 
 48.68         22 
 48.7          31 
 48.72         20 
 48.74         23 
 48.76         25 
 48.78         34 
 48.8          32 
 48.82         34 
 48.84         34 
 48.86         34 
 48.88         24 
 48.9          29 
 48.92         32 
 48.94         43 
 48.96         29 
 48.98         33 
 49            38 
 49.02         33 
 49.04         29 
 49.06         25 
 49.08         41 
 49.1          27 
 49.12         29 
 49.14         32 
 49.16         28 
 49.18         28 
 49.2          36 
 49.22         26 
 49.24         30 
 49.26         32 
 49.28         34 
 49.3          33 
 49.32         32 
 49.34         24 
 49.36         28 
 49.38         19 
 49.4          22 
 49.42         27 
 49.44         35 
 49.46         33 
 49.48         20 
 49.5          26 
 49.52         35 
 49.54         26 
 49.56         26 
 49.58         25 
 49.6          31 
 49.62         43 
 49.64         32 
 49.66         20 
 49.68         32 
 49.7          29 
 49.72         30 
 49.74         45 
 49.76         27 
 49.78         26 
 49.8          22 
 49.82         30 
 49.84         25 
 49.86         34 
 49.88         31 
 49.9          30 
 49.92         38 
 49.94         33 
 49.96         33 
 49.98         35 
 50            42 
 50.02         34 
 50.04         38 
 50.06         43 
 50.08         29 
 50.1          41 
 50.12         36 
 50.14         31 
 50.16         27 
 50.18         39 
 50.2          54 
 50.22         33 
 50.24         47 
 50.26         31 
 50.28         43 
 50.3          42 
 50.32         30 
 50.34         38 
 50.36         38 
 50.38         42 
 50.4          35 
 50.42         37 
 50.44         40 
 50.46         42 
 50.48         36 
 50.5          33 
 50.52         45 
 50.54         24 
 50.56         29 
 50.58         33 
 50.6          41 
 50.62         32 
 50.64         31 
 50.66         34 
 50.68         22 
 50.7          23 
 50.72         32 
 50.74         35 
 50.76         23 
 50.78         36 
 50.8          31 
 50.82         29 
 50.84         42 
 50.86         34 
 50.88         32 
 50.9          28 
 50.92         27 
 50.94         42 
 50.96         27 
 50.98         36 
 51            38 
 51.02         33 
 51.04         32 
 51.06         32 
 51.08         34 
 51.1          38 
 51.12         25 
 51.14         30 
 51.16         31 
 51.18         33 
 51.2          33 
 51.22         26 
 51.24         25 
 51.26         35 
 51.28         29 
 51.3          27 
 51.32         25 
 51.34         27 
 51.36         44 
 51.38         36 
 51.4          33 
 51.42         29 
 51.44         26 
 51.46         32 
 51.48         50 
 51.5          36 
 51.52         29 
 51.54         20 
 51.56         38 
 51.58         37 
 51.6          27 
 51.62         28 
 51.64         39 
 51.66         41 
 51.68         34 
 51.7          27 
 51.72         30 
 51.74         31 
 51.76         33 
 51.78         32 
 51.8          41 
 51.82         31 
 51.84         46 
 51.86         34 
 51.88         31 
 51.9          38 
 51.92         34 
 51.94         36 
 51.96         30 
 51.98         28 
 52            32 
 52.02         25 
 52.04         38 
 52.06         37 
 52.08         46 
 52.1          33 
 52.12         36 
 52.14         34 
 52.16         28 
 52.18         35 
 52.2          41 
 52.22         34 
 52.24         35 
 52.26         43 
 52.28         31 
 52.3          28 
 52.32         28 
 52.34         42 
 52.36         29 
 52.38         42 
 52.4          43 
 52.42         32 
 52.44         38 
 52.46         44 
 52.48         36 
 52.5          22 
 52.52         31 
 52.54         31 
 52.56         41 
 52.58         27 
 52.6          50 
 52.62         20 
 52.64         39 
 52.66         40 
 52.68         39 
 52.7          34 
 52.72         35 
 52.74         44 
 52.76         40 
 52.78         40 
 52.8          34 
 52.82         41 
 52.84         49 
 52.86         40 
 52.88         41 
 52.9          42 
 52.92         43 
 52.94         49 
 52.96         28 
 52.98         55 
 53            61 
 53.02         45 
 53.04         59 
 53.06         58 
 53.08         45 
 53.1          43 
 53.12         63 
 53.14         42 
 53.16         50 
 53.18         64 
 53.2          59 
 53.22         48 
 53.24         65 
 53.26         48 
 53.28         54 
 53.3          72 
 53.32         50 
 53.34         50 
 53.36         38 
 53.38         39 
 53.4          46 
 53.42         43 
 53.44         38 
 53.46         49 
 53.48         54 
 53.5          61 
 53.52         49 
 53.54         49 
 53.56         43 
 53.58         49 
 53.6          43 
 53.62         43 
 53.64         61 
 53.66         40 
 53.68         47 
 53.7          47 
 53.72         47 
 53.74         48 
 53.76         57 
 53.78         44 
 53.8          49 
 53.82         33 
 53.84         49 
 53.86         49 
 53.88         45 
 53.9          52 
 53.92         47 
 53.94         35 
 53.96         48 
 53.98         42 
 54            43 
 54.02         52 
 54.04         47 
 54.06         56 
 54.08         51 
 54.1          38 
 54.12         54 
 54.14         44 
 54.16         57 
 54.18         50 
 54.2          41 
 54.22         47 
 54.24         48 
 54.26         48 
 54.28         36 
 54.3          40 
 54.32         47 
 54.34         39 
 54.36         45 
 54.38         49 
 54.4          48 
 54.42         32 
 54.44         41 
 54.46         46 
 54.48         34 
 54.5          35 
 54.52         31 
 54.54         22 
 54.56         42 
 54.58         28 
 54.6          46 
 54.62         30 
 54.64         32 
 54.66         42 
 54.68         40 
 54.7          41 
 54.72         48 
 54.74         29 
 54.76         37 
 54.78         44 
 54.8          30 
 54.82         34 
 54.84         41 
 54.86         47 
 54.88         37 
 54.9          41 
 54.92         37 
 54.94         36 
 54.96         45 
 54.98         49 
 55            44 
 55.02         36 
 55.04         42 
 55.06         42 
 55.08         43 
 55.1          37 
 55.12         44 
 55.14         38 
 55.16         45 
 55.18         46 
 55.2          42 
 55.22         46 
 55.24         49 
 55.26         40 
 55.28         49 
 55.3          43 
 55.32         42 
 55.34         36 
 55.36         45 
 55.38         43 
 55.4          54 
 55.42         50 
 55.44         40 
 55.46         54 
 55.48         51 
 55.5          43 
 55.52         58 
 55.54         51 
 55.56         53 
 55.58         45 
 55.6          38 
 55.62         33 
 55.64         42 
 55.66         53 
 55.68         50 
 55.7          45 
 55.72         44 
 55.74         54 
 55.76         57 
 55.78         57 
 55.8          59 
 55.82         58 
 55.84         50 
 55.86         59 
 55.88         51 
 55.9          53 
 55.92         46 
 55.94         73 
 55.96         54 
 55.98         59 
 56            63 
 56.02         68 
 56.04         54 
 56.06         78 
 56.08         85 
 56.1          65 
 56.12         54 
 56.14         59 
 56.16         62 
 56.18         54 
 56.2          59 
 56.22         77 
 56.24         83 
 56.26         71 
 56.28         91 
 56.3          87 
 56.32         86 
 56.34         98 
 56.36         100 
 56.38         100 
 56.4          110 
 56.42         105 
 56.44         108 
 56.46         109 
 56.48         124 
 56.5          102 
 56.52         116 
 56.54         124 
 56.56         101 
 56.58         128 
 56.6          118 
 56.62         140 
 56.64         121 
 56.66         131 
 56.68         145 
 56.7          121 
 56.72         115 
 56.74         152 
 56.76         141 
 56.78         128 
 56.8          150 
 56.82         122 
 56.84         151 
 56.86         128 
 56.88         135 
 56.9          114 
 56.92         148 
 56.94         128 
 56.96         144 
 56.98         133 
 57            130 
 57.02         134 
 57.04         129 
 57.06         141 
 57.08         140 
 57.1          152 
 57.12         155 
 57.14         157 
 57.16         168 
 57.18         171 
 57.2          153 
 57.22         147 
 57.24         137 
 57.26         160 
 57.28         143 
 57.3          134 
 57.32         152 
 57.34         134 
 57.36         144 
 57.38         138 
 57.4          157 
 57.42         136 
 57.44         170 
 57.46         136 
 57.48         126 
 57.5          155 
 57.52         160 
 57.54         158 
 57.56         172 
 57.58         157 
 57.6          155 
 57.62         178 
 57.64         159 
 57.66         168 
 57.68         181 
 57.7          180 
 57.72         184 
 57.74         177 
 57.76         170 
 57.78         191 
 57.8          165 
 57.82         212 
 57.84         182 
 57.86         175 
 57.88         232 
 57.9          220 
 57.92         231 
 57.94         201 
 57.96         212 
 57.98         203 
 58            206 
 58.02         183 
 58.04         203 
 58.06         179 
 58.08         167 
 58.1          153 
 58.12         164 
 58.14         130 
 58.16         126 
 58.18         123 
 58.2          84 
 58.22         93 
 58.24         80 
 58.26         74 
 58.28         70 
 58.3          63 
 58.32         72 
 58.34         51 
 58.36         44 
 58.38         42 
 58.4          41 
 58.42         50 
 58.44         46 
 58.46         42 
 58.48         44 
 58.5          36 
 58.52         49 
 58.54         40 
 58.56         43 
 58.58         42 
 58.6          48 
 58.62         45 
 58.64         30 
 58.66         25 
 58.68         40 
 58.7          36 
 58.72         30 
 58.74         36 
 58.76         41 
 58.78         34 
 58.8          40 
 58.82         38 
 58.84         34 
 58.86         37 
 58.88         38 
 58.9          43 
 58.92         25 
 58.94         33 
 58.96         36 
 58.98         35 
 59            33 
 59.02         34 
 59.04         31 
 59.06         26 
 59.08         51 
 59.1          36 
 59.12         33 
 59.14         32 
 59.16         29 
 59.18         42 
 59.2          32 
 59.22         26 
 59.24         30 
 59.26         28 
 59.28         31 
 59.3          34 
 59.32         39 
 59.34         32 
 59.36         34 
 59.38         35 
 59.4          40 
 59.42         26 
 59.44         31 
 59.46         45 
 59.48         32 
 59.5          26 
 59.52         37 
 59.54         37 
 59.56         41 
 59.58         34 
 59.6          36 
 59.62         32 
 59.64         32 
 59.66         36 
 59.68         33 
 59.7          31 
 59.72         36 
 59.74         43 
 59.76         35 
 59.78         50 
 59.8          35 
 59.82         31 
 59.84         37 
 59.86         47 
 59.88         39 
 59.9          44 
 59.92         30 
 59.94         38 
 59.96         28 
 59.98         37 
 60            40 
 60.02         43 
 60.04         35 
 60.06         37 
 60.08         38 
 60.1          43 
 60.12         38 
 60.14         39 
 60.16         43 
 60.18         37 
 60.2          51 
 60.22         34 
 60.24         43 
 60.26         31 
 60.28         46 
 60.3          43 
 60.32         35 
 60.34         32 
 60.36         45 
 60.38         34 
 60.4          37 
 60.42         29 
 60.44         26 
 60.46         39 
 60.48         48 
 60.5          21 
 60.52         40 
 60.54         36 
 60.56         34 
 60.58         40 
 60.6          40 
 60.62         43 
 60.64         25 
 60.66         36 
 60.68         41 
 60.7          38 
 60.72         29 
 60.74         31 
 60.76         36 
 60.78         45 
 60.8          46 
 60.82         45 
 60.84         34 
 60.86         41 
 60.88         37 
 60.9          29 
 60.92         40 
 60.94         37 
 60.96         37 
 60.98         37 
 61            41 
 61.02         41 
 61.04         39 
 61.06         52 
 61.08         40 
 61.1          42 
 61.12         42 
 61.14         55 
 61.16         54 
 61.18         50 
 61.2          42 
 61.22         49 
 61.24         63 
 61.26         45 
 61.28         43 
 61.3          55 
 61.32         62 
 61.34         67 
 61.36         60 
 61.38         69 
 61.4          61 
 61.42         68 
 61.44         56 
 61.46         62 
 61.48         79 
 61.5          79 
 61.52         83 
 61.54         78 
 61.56         82 
 61.58         62 
 61.6          82 
 61.62         94 
 61.64         70 
 61.66         94 
 61.68         89 
 61.7          90 
 61.72         107 
 61.74         91 
 61.76         81 
 61.78         86 
 61.8          91 
 61.82         106 
 61.84         94 
 61.86         119 
 61.88         117 
 61.9          130 
 61.92         100 
 61.94         113 
 61.96         115 
 61.98         128 
 62            123 
 62.02         127 
 62.04         134 
 62.06         130 
 62.08         126 
 62.1          152 
 62.12         141 
 62.14         148 
 62.16         159 
 62.18         176 
 62.2          146 
 62.22         156 
 62.24         155 
 62.26         169 
 62.28         146 
 62.3          152 
 62.32         158 
 62.34         169 
 62.36         153 
 62.38         155 
 62.4          181 
 62.42         178 
 62.44         181 
 62.46         176 
 62.48         155 
 62.5          172 
 62.52         152 
 62.54         167 
 62.56         193 
 62.58         198 
 62.6          160 
 62.62         190 
 62.64         189 
 62.66         190 
 62.68         224 
 62.7          203 
 62.72         225 
 62.74         227 
 62.76         213 
 62.78         209 
 62.8          246 
 62.82         238 
 62.84         250 
 62.86         211 
 62.88         212 
 62.9          254 
 62.92         226 
 62.94         248 
 62.96         280 
 62.98         265 
 63            284 
 63.02         291 
 63.04         291 
 63.06         312 
 63.08         334 
 63.1          319 
 63.12         337 
 63.14         378 
 63.16         358 
 63.18         381 
 63.2          374 
 63.22         432 
 63.24         459 
 63.26         422 
 63.28         461 
 63.3          424 
 63.32         419 
 63.34         417 
 63.36         423 
 63.38         392 
 63.4          376 
 63.42         372 
 63.44         372 
 63.46         354 
 63.48         352 
 63.5          374 
 63.52         316 
 63.54         330 
 63.56         326 
 63.58         347 
 63.6          344 
 63.62         309 
 63.64         315 
 63.66         321 
 63.68         295 
 63.7          292 
 63.72         295 
 63.74         307 
 63.76         248 
 63.78         246 
 63.8          241 
 63.82         232 
 63.84         215 
 63.86         189 
 63.88         164 
 63.9          145 
 63.92         154 
 63.94         142 
 63.96         114 
 63.98         97 
 64            103 
 64.02         81 
 64.04         83 
 64.06         74 
 64.08         72 
 64.1          60 
 64.12         48 
 64.14         50 
 64.16         52 
 64.18         50 
 64.2          39 
 64.22         38 
 64.24         57 
 64.26         32 
 64.28         46 
 64.3          53 
 64.32         42 
 64.34         33 
 64.36         34 
 64.38         41 
 64.4          43 
 64.42         32 
 64.44         38 
 64.46         42 
 64.48         42 
 64.5          37 
 64.52         35 
 64.54         48 
 64.56         44 
 64.58         37 
 64.6          43 
 64.62         36 
 64.64         35 
 64.66         48 
 64.68         31 
 64.7          44 
 64.72         27 
 64.74         30 
 64.76         37 
 64.78         32 
 64.8          30 
 64.82         30 
 64.84         28 
 64.86         41 
 64.88         39 
 64.9          27 
 64.92         34 
 64.94         34 
 64.96         30 
 64.98         31 
 65            27 
 65.02         32 
 65.04         42 
 65.06         39 
 65.08         52 
 65.1          36 
 65.12         28 
 65.14         42 
 65.16         37 
 65.18         37 
 65.2          34 
 65.22         29 
 65.24         41 
 65.26         44 
 65.28         34 
 65.3          31 
 65.32         37 
 65.34         37 
 65.36         35 
 65.38         45 
 65.4          38 
 65.42         42 
 65.44         44 
 65.46         34 
 65.48         39 
 65.5          46 
 65.52         41 
 65.54         43 
 65.56         55 
 65.58         33 
 65.6          40 
 65.62         46 
 65.64         44 
 65.66         44 
 65.68         32 
 65.7          41 
 65.72         53 
 65.74         27 
 65.76         48 
 65.78         40 
 65.8          46 
 65.82         35 
 65.84         45 
 65.86         41 
 65.88         37 
 65.9          46 
 65.92         47 
 65.94         41 
 65.96         56 
 65.98         41 
 66            41 
 66.02         55 
 66.04         46 
 66.06         43 
 66.08         42 
 66.1          60 
 66.12         39 
 66.14         68 
 66.16         35 
 66.18         57 
 66.2          48 
 66.22         44 
 66.24         42 
 66.26         45 
 66.28         44 
 66.3          51 
 66.32         44 
 66.34         63 
 66.36         71 
 66.38         48 
 66.4          57 
 66.42         45 
 66.44         51 
 66.46         59 
 66.48         59 
 66.5          67 
 66.52         72 
 66.54         59 
 66.56         69 
 66.58         42 
 66.6          74 
 66.62         62 
 66.64         69 
 66.66         77 
 66.68         74 
 66.7          71 
 66.72         75 
 66.74         68 
 66.76         83 
 66.78         79 
 66.8          86 
 66.82         99 
 66.84         88 
 66.86         96 
 66.88         88 
 66.9          91 
 66.92         93 
 66.94         87 
 66.96         92 
 66.98         98 
 67            103 
 67.02         93 
 67.04         74 
 67.06         102 
 67.08         75 
 67.1          99 
 67.12         80 
 67.14         64 
 67.16         58 
 67.18         86 
 67.2          70 
 67.22         61 
 67.24         61 
 67.26         58 
 67.28         57 
 67.3          42 
 67.32         48 
 67.34         43 
 67.36         46 
 67.38         28 
 67.4          43 
 67.42         29 
 67.44         40 
 67.46         27 
 67.48         36 
 67.5          22 
 67.52         26 
 67.54         24 
 67.56         29 
 67.58         29 
 67.6          31 
 67.62         29 
 67.64         33 
 67.66         32 
 67.68         22 
 67.7          33 
 67.72         15 
 67.74         20 
 67.76         23 
 67.78         25 
 67.8          33 
 67.82         28 
 67.84         21 
 67.86         27 
 67.88         29 
 67.9          30 
 67.92         28 
 67.94         27 
 67.96         25 
 67.98         25 
 68            27 
 68.02         19 
 68.04         29 
 68.06         30 
 68.08         23 
 68.1          30 
 68.12         26 
 68.14         25 
 68.16         29 
 68.18         24 
 68.2          27 
 68.22         27 
 68.24         38 
 68.26         22 
 68.28         31 
 68.3          21 
 68.32         30 
 68.34         19 
 68.36         17 
 68.38         26 
 68.4          20 
 68.42         27 
 68.44         25 
 68.46         29 
 68.48         19 
 68.5          21 
 68.52         19 
 68.54         31 
 68.56         19 
 68.58         26 
 68.6          26 
 68.62         22 
 68.64         30 
 68.66         30 
 68.68         17 
 68.7          30 
 68.72         19 
 68.74         26 
 68.76         25 
 68.78         23 
 68.8          23 
 68.82         31 
 68.84         25 
 68.86         35 
 68.88         19 
 68.9          22 
 68.92         32 
 68.94         25 
 68.96         25 
 68.98         26 
 69            21 
 69.02         21 
 69.04         24 
 69.06         17 
 69.08         18 
 69.1          27 
 69.12         27 
 69.14         18 
 69.16         23 
 69.18         27 
 69.2          13 
 69.22         31 
 69.24         20 
 69.26         27 
 69.28         28 
 69.3          25 
 69.32         25 
 69.34         24 
 69.36         15 
 69.38         18 
 69.4          22 
 69.42         28 
 69.44         28 
 69.46         27 
 69.48         25 
 69.5          25 
 69.52         29 
 69.54         24 
 69.56         26 
 69.58         24 
 69.6          18 
 69.62         25 
 69.64         27 
 69.66         26 
 69.68         37 
 69.7          23 
 69.72         31 
 69.74         26 
 69.76         21 
 69.78         21 
 69.8          23 
 69.82         39 
 69.84         25 
 69.86         35 
 69.88         26 
 69.9          16 
 69.92         29 
 69.94         25 
 69.96         22 
 69.98         23 
 70            23 
 70.02         22 
 70.04         26 
 70.06         22 
 70.08         22 
 70.1          24 
 70.12         20 
 70.14         21 
 70.16         21 
 70.18         16 
 70.2          25 
 70.22         23 
 70.24         21 
 70.26         24 
 70.28         36 
 70.3          28 
 70.32         27 
 70.34         22 
 70.36         27 
 70.38         26 
 70.4          23 
 70.42         33 
 70.44         32 
 70.46         32 
 70.48         25 
 70.5          33 
 70.52         24 
 70.54         23 
 70.56         34 
 70.58         37 
 70.6          25 
 70.62         32 
 70.64         22 
 70.66         29 
 70.68         29 
 70.7          37 
 70.72         33 
 70.74         29 
 70.76         29 
 70.78         26 
 70.8          30 
 70.82         30 
 70.84         26 
 70.86         33 
 70.88         31 
 70.9          29 
 70.92         28 
 70.94         44 
 70.96         31 
 70.98         33 
 71            21 
 71.02         30 
 71.04         31 
 71.06         31 
 71.08         33 
 71.1          27 
 71.12         30 
 71.14         24 
 71.16         30 
 71.18         30 
 71.2          30 
 71.22         41 
 71.24         31 
 71.26         44 
 71.28         33 
 71.3          30 
 71.32         32 
 71.34         29 
 71.36         30 
 71.38         28 
 71.4          22 
 71.42         34 
 71.44         27 
 71.46         22 
 71.48         25 
 71.5          27 
 71.52         27 
 71.54         27 
 71.56         41 
 71.58         21 
 71.6          27 
 71.62         27 
 71.64         34 
 71.66         25 
 71.68         24 
 71.7          27 
 71.72         33 
 71.74         29 
 71.76         28 
 71.78         32 
 71.8          21 
 71.82         26 
 71.84         28 
 71.86         28 
 71.88         26 
 71.9          27 
 71.92         28 
 71.94         28 
 71.96         22 
 71.98         36 
 72            26 
 72.02         33 
 72.04         20 
 72.06         23 
 72.08         26 
 72.1          21 
 72.12         18 
 72.14         37 
 72.16         42 
 72.18         34 
 72.2          33 
 72.22         31 
 72.24         28 
 72.26         20 
 72.28         32 
 72.3          35 
 72.32         23 
 72.34         35 
 72.36         39 
 72.38         32 
 72.4          31 
 72.42         26 
 72.44         33 
 72.46         25 
 72.48         21 
 72.5          26 
 72.52         39 
 72.54         35 
 72.56         27 
 72.58         42 
 72.6          35 
 72.62         25 
 72.64         37 
 72.66         26 
 72.68         26 
 72.7          34 
 72.72         25 
 72.74         40 
 72.76         31 
 72.78         25 
 72.8          37 
 72.82         24 
 72.84         33 
 72.86         25 
 72.88         44 
 72.9          32 
 72.92         38 
 72.94         28 
 72.96         25 
 72.98         25 
 73            40 
 73.02         32 
 73.04         22 
 73.06         32 
 73.08         32 
 73.1          46 
 73.12         42 
 73.14         42 
 73.16         34 
 73.18         33 
 73.2          34 
 73.22         28 
 73.24         40 
 73.26         45 
 73.28         39 
 73.3          40 
 73.32         41 
 73.34         40 
 73.36         51 
 73.38         39 
 73.4          28 
 73.42         45 
 73.44         39 
 73.46         59 
 73.48         42 
 73.5          57 
 73.52         64 
 73.54         55 
 73.56         48 
 73.58         53 
 73.6          49 
 73.62         68 
 73.64         52 
 73.66         54 
 73.68         54 
 73.7          46 
 73.72         59 
 73.74         66 
 73.76         52 
 73.78         58 
 73.8          57 
 73.82         56 
 73.84         51 
 73.86         48 
 73.88         54 
 73.9          51 
 73.92         56 
 73.93999      60 
 73.96         44 
 73.98         59 
 74            50 
 74.02         51 
 74.04         52 
 74.06         45 
 74.08         70 
 74.1          30 
 74.12         44 
 74.14         40 
 74.16         64 
 74.18         54 
 74.2          54 
 74.22         50 
 74.24         61 
 74.26         58 
 74.28         58 
 74.3          62 
 74.32         47 
 74.34         58 
 74.36         62 
 74.38         45 
 74.4          60 
 74.42         81 
 74.43999      50 
 74.46         56 
 74.48         63 
 74.5          58 
 74.52         55 
 74.54         67 
 74.56         63 
 74.58         75 
 74.6          72 
 74.62         67 
 74.64         76 
 74.66         58 
 74.68         57 
 74.7          56 
 74.72         54 
 74.74         71 
 74.76         62 
 74.78         63 
 74.8          54 
 74.82         71 
 74.84         58 
 74.86         69 
 74.88         64 
 74.9          70 
 74.92         67 
 74.93999      67 
 74.96         73 
 74.98         69 
 75            72 
