LNMO auf L433 850°C Fast  Original Data
 3151 
 12            429 
 12.02         435 
 12.04         468 
 12.06         435 
 12.08         465 
 12.1          455 
 12.12         478 
 12.14         458 
 12.16         465 
 12.18         467 
 12.2          475 
 12.22         463 
 12.24         479 
 12.26         474 
 12.28         520 
 12.3          443 
 12.32         480 
 12.34         468 
 12.36         479 
 12.38         421 
 12.4          457 
 12.42         486 
 12.44         462 
 12.46         478 
 12.48         476 
 12.5          443 
 12.52         466 
 12.54         464 
 12.56         473 
 12.58         480 
 12.6          473 
 12.62         438 
 12.64         490 
 12.66         424 
 12.68         464 
 12.7          477 
 12.72         423 
 12.74         459 
 12.76         473 
 12.78         477 
 12.8          456 
 12.82         455 
 12.84         476 
 12.86         451 
 12.88         444 
 12.9          471 
 12.92         470 
 12.94         431 
 12.96         454 
 12.98         434 
 13            485 
 13.02         445 
 13.04         434 
 13.06         491 
 13.08         471 
 13.1          464 
 13.12         458 
 13.14         422 
 13.16         505 
 13.18         414 
 13.2          459 
 13.22         392 
 13.24         417 
 13.26         421 
 13.28         426 
 13.3          394 
 13.32         426 
 13.34         423 
 13.36         405 
 13.38         422 
 13.4          427 
 13.42         421 
 13.44         397 
 13.46         441 
 13.48         394 
 13.5          393 
 13.52         393 
 13.54         388 
 13.56         378 
 13.58         396 
 13.6          350 
 13.62         346 
 13.64         396 
 13.66         360 
 13.68         398 
 13.7          358 
 13.72         407 
 13.74         351 
 13.76         394 
 13.78         371 
 13.8          399 
 13.82         343 
 13.84         385 
 13.86         336 
 13.88         351 
 13.9          324 
 13.92         327 
 13.94         332 
 13.96         346 
 13.98         347 
 14            323 
 14.02         335 
 14.04         328 
 14.06         339 
 14.08         331 
 14.1          337 
 14.12         310 
 14.14         337 
 14.16         339 
 14.18         334 
 14.2          322 
 14.22         321 
 14.24         336 
 14.26         333 
 14.28         307 
 14.3          303 
 14.32         339 
 14.34         298 
 14.36         340 
 14.38         296 
 14.4          274 
 14.42         275 
 14.44         282 
 14.46         292 
 14.48         275 
 14.5          265 
 14.52         289 
 14.54         305 
 14.56         294 
 14.58         288 
 14.6          292 
 14.62         332 
 14.64         272 
 14.66         311 
 14.68         304 
 14.7          283 
 14.72         256 
 14.74         297 
 14.76         292 
 14.78         264 
 14.8          245 
 14.82         283 
 14.84         290 
 14.86         224 
 14.88         239 
 14.9          235 
 14.92         249 
 14.94         245 
 14.96         263 
 14.98         205 
 15            235 
 15.02         230 
 15.04         243 
 15.06         196 
 15.08         239 
 15.1          262 
 15.12         235 
 15.14         242 
 15.16         228 
 15.18         229 
 15.2          240 
 15.22         232 
 15.24         216 
 15.26         205 
 15.28         193 
 15.3          206 
 15.32         232 
 15.34         220 
 15.36         226 
 15.38         217 
 15.4          235 
 15.42         201 
 15.44         190 
 15.46         202 
 15.48         199 
 15.5          197 
 15.52         204 
 15.54         186 
 15.56         218 
 15.58         197 
 15.6          195 
 15.62         200 
 15.64         204 
 15.66         221 
 15.68         218 
 15.7          187 
 15.72         189 
 15.74         201 
 15.76         186 
 15.78         187 
 15.8          215 
 15.82         200 
 15.84         177 
 15.86         181 
 15.88         174 
 15.9          192 
 15.92         174 
 15.94         180 
 15.96         192 
 15.98         175 
 16            197 
 16.02         184 
 16.04         173 
 16.06         164 
 16.08         183 
 16.1          161 
 16.12         176 
 16.14         187 
 16.16         181 
 16.18         178 
 16.2          171 
 16.22         176 
 16.24         172 
 16.26         197 
 16.28         167 
 16.3          172 
 16.32         175 
 16.34         164 
 16.36         179 
 16.38         173 
 16.4          182 
 16.42         145 
 16.44         161 
 16.46         161 
 16.48         169 
 16.5          170 
 16.52         167 
 16.54         163 
 16.56         140 
 16.58         179 
 16.6          183 
 16.62         143 
 16.64         164 
 16.66         170 
 16.68         181 
 16.7          149 
 16.72         164 
 16.74         168 
 16.76         162 
 16.78         166 
 16.8          190 
 16.82         156 
 16.84         132 
 16.86         158 
 16.88         158 
 16.9          147 
 16.92         158 
 16.94         158 
 16.96         167 
 16.98         161 
 17            147 
 17.02         165 
 17.04         161 
 17.06         142 
 17.08         157 
 17.1          155 
 17.12         148 
 17.14         162 
 17.16         155 
 17.18         175 
 17.2          158 
 17.22         168 
 17.24         184 
 17.26         153 
 17.28         172 
 17.3          157 
 17.32         155 
 17.34         184 
 17.36         177 
 17.38         165 
 17.4          165 
 17.42         164 
 17.44         191 
 17.46         147 
 17.48         159 
 17.5          165 
 17.52         171 
 17.54         168 
 17.56         158 
 17.58         178 
 17.6          153 
 17.62         153 
 17.64         159 
 17.66         170 
 17.68         190 
 17.7          170 
 17.72         156 
 17.74         185 
 17.76         201 
 17.78         190 
 17.8          183 
 17.82         178 
 17.84         186 
 17.86         191 
 17.88         230 
 17.9          222 
 17.92         242 
 17.94         251 
 17.96         275 
 17.98         294 
 18            359 
 18.02         367 
 18.04         367 
 18.06         430 
 18.08         494 
 18.1          533 
 18.12         581 
 18.14         665 
 18.16         700 
 18.18         823 
 18.2          941 
 18.22         1021 
 18.24         1094 
 18.26         1140 
 18.28         1283 
 18.3          1388 
 18.32         1398 
 18.34         1475 
 18.36         1560 
 18.38         1670 
 18.4          1676 
 18.42         1728 
 18.44         1778 
 18.46         1827 
 18.48         1861 
 18.5          1823 
 18.52         1823 
 18.54         1853 
 18.56         1722 
 18.58         1755 
 18.6          1664 
 18.62         1583 
 18.64         1429 
 18.66         1284 
 18.68         1123 
 18.7          913 
 18.72         785 
 18.74         596 
 18.76         504 
 18.78         369 
 18.8          345 
 18.82         310 
 18.84         292 
 18.86         246 
 18.88         242 
 18.9          233 
 18.92         203 
 18.94         210 
 18.96         201 
 18.98         192 
 19            190 
 19.02         179 
 19.04         184 
 19.06         162 
 19.08         169 
 19.1          165 
 19.12         148 
 19.14         163 
 19.16         158 
 19.18         160 
 19.2          141 
 19.22         148 
 19.24         142 
 19.26         145 
 19.28         155 
 19.3          131 
 19.32         142 
 19.34         138 
 19.36         144 
 19.38         159 
 19.4          151 
 19.42         136 
 19.44         129 
 19.46         149 
 19.48         116 
 19.5          135 
 19.52         138 
 19.54         137 
 19.56         155 
 19.58         124 
 19.6          135 
 19.62         120 
 19.64         140 
 19.66         131 
 19.68         119 
 19.7          119 
 19.72         109 
 19.74         129 
 19.76         115 
 19.78         125 
 19.8          126 
 19.82         117 
 19.84         115 
 19.86         111 
 19.88         117 
 19.9          118 
 19.92         135 
 19.94         119 
 19.96         126 
 19.98         124 
 20            115 
 20.02         111 
 20.04         108 
 20.06         124 
 20.08         123 
 20.1          126 
 20.12         116 
 20.14         136 
 20.16         102 
 20.18         123 
 20.2          113 
 20.22         124 
 20.24         107 
 20.26         103 
 20.28         105 
 20.3          105 
 20.32         124 
 20.34         101 
 20.36         121 
 20.38         123 
 20.4          118 
 20.42         114 
 20.44         113 
 20.46         95 
 20.48         119 
 20.5          120 
 20.52         103 
 20.54         129 
 20.56         129 
 20.58         110 
 20.6          106 
 20.62         110 
 20.64         136 
 20.66         115 
 20.68         96 
 20.7          101 
 20.72         132 
 20.74         117 
 20.76         134 
 20.78         113 
 20.8          127 
 20.82         136 
 20.84         126 
 20.86         122 
 20.88         98 
 20.9          130 
 20.92         117 
 20.94         123 
 20.96         114 
 20.98         133 
 21            124 
 21.02         109 
 21.04         117 
 21.06         91 
 21.08         105 
 21.1          95 
 21.12         116 
 21.14         122 
 21.16         104 
 21.18         106 
 21.2          110 
 21.22         100 
 21.24         112 
 21.26         107 
 21.28         99 
 21.3          99 
 21.32         98 
 21.34         115 
 21.36         103 
 21.38         105 
 21.4          99 
 21.42         99 
 21.44         104 
 21.46         106 
 21.48         98 
 21.5          95 
 21.52         99 
 21.54         105 
 21.56         104 
 21.58         111 
 21.6          107 
 21.62         105 
 21.64         105 
 21.66         121 
 21.68         90 
 21.7          82 
 21.72         101 
 21.74         106 
 21.76         94 
 21.78         118 
 21.8          88 
 21.82         87 
 21.84         84 
 21.86         121 
 21.88         88 
 21.9          104 
 21.92         98 
 21.94         106 
 21.96         91 
 21.98         112 
 22            97 
 22.02         97 
 22.04         99 
 22.06         87 
 22.08         80 
 22.1          105 
 22.12         107 
 22.14         119 
 22.16         113 
 22.18         96 
 22.2          94 
 22.22         104 
 22.24         95 
 22.26         119 
 22.28         80 
 22.3          84 
 22.32         91 
 22.34         107 
 22.36         96 
 22.38         89 
 22.4          99 
 22.42         93 
 22.44         104 
 22.46         89 
 22.48         119 
 22.5          117 
 22.52         95 
 22.54         99 
 22.56         104 
 22.58         94 
 22.6          100 
 22.62         103 
 22.64         75 
 22.66         106 
 22.68         110 
 22.7          107 
 22.72         88 
 22.74         97 
 22.76         83 
 22.78         75 
 22.8          93 
 22.82         82 
 22.84         89 
 22.86         85 
 22.88         89 
 22.9          76 
 22.92         93 
 22.94         86 
 22.96         100 
 22.98         94 
 23            99 
 23.02         98 
 23.04         99 
 23.06         91 
 23.08         106 
 23.1          91 
 23.12         105 
 23.14         88 
 23.16         91 
 23.18         105 
 23.2          108 
 23.22         84 
 23.24         86 
 23.26         109 
 23.28         87 
 23.3          96 
 23.32         86 
 23.34         96 
 23.36         94 
 23.38         88 
 23.4          91 
 23.42         95 
 23.44         79 
 23.46         103 
 23.48         98 
 23.5          88 
 23.52         80 
 23.54         106 
 23.56         81 
 23.58         98 
 23.6          84 
 23.62         88 
 23.64         81 
 23.66         80 
 23.68         81 
 23.7          89 
 23.72         82 
 23.74         94 
 23.76         106 
 23.78         74 
 23.8          84 
 23.82         78 
 23.84         82 
 23.86         86 
 23.88         88 
 23.9          96 
 23.92         105 
 23.94         91 
 23.96         85 
 23.98         102 
 24            79 
 24.02         85 
 24.04         87 
 24.06         92 
 24.08         80 
 24.1          80 
 24.12         108 
 24.14         94 
 24.16         80 
 24.18         94 
 24.2          77 
 24.22         105 
 24.24         104 
 24.26         87 
 24.28         77 
 24.3          118 
 24.32         82 
 24.34         84 
 24.36         98 
 24.38         97 
 24.4          103 
 24.42         93 
 24.44         104 
 24.46         78 
 24.48         99 
 24.5          89 
 24.52         83 
 24.54         94 
 24.56         84 
 24.58         78 
 24.6          89 
 24.62         99 
 24.64         71 
 24.66         81 
 24.68         78 
 24.7          78 
 24.72         93 
 24.74         90 
 24.76         75 
 24.78         91 
 24.8          81 
 24.82         83 
 24.84         79 
 24.86         84 
 24.88         71 
 24.9          74 
 24.92         83 
 24.94         99 
 24.96         81 
 24.98         73 
 25            70 
 25.02         80 
 25.04         72 
 25.06         92 
 25.08         81 
 25.1          57 
 25.12         67 
 25.14         88 
 25.16         105 
 25.18         97 
 25.2          72 
 25.22         74 
 25.24         72 
 25.26         90 
 25.28         63 
 25.3          67 
 25.32         91 
 25.34         74 
 25.36         77 
 25.38         83 
 25.4          103 
 25.42         76 
 25.44         90 
 25.46         66 
 25.48         86 
 25.5          78 
 25.52         78 
 25.54         77 
 25.56         82 
 25.58         86 
 25.6          101 
 25.62         65 
 25.64         77 
 25.66         87 
 25.68         84 
 25.7          81 
 25.72         66 
 25.74         74 
 25.76         85 
 25.78         62 
 25.8          75 
 25.82         81 
 25.84         64 
 25.86         85 
 25.88         81 
 25.9          72 
 25.92         96 
 25.94         76 
 25.96         71 
 25.98         75 
 26            62 
 26.02         68 
 26.04         96 
 26.06         84 
 26.08         80 
 26.1          80 
 26.12         86 
 26.14         74 
 26.16         82 
 26.18         79 
 26.2          76 
 26.22         74 
 26.24         87 
 26.26         81 
 26.28         75 
 26.3          82 
 26.32         80 
 26.34         88 
 26.36         87 
 26.38         79 
 26.4          81 
 26.42         66 
 26.44         95 
 26.46         89 
 26.48         69 
 26.5          89 
 26.52         82 
 26.54         80 
 26.56         78 
 26.58         90 
 26.6          68 
 26.62         74 
 26.64         77 
 26.66         72 
 26.68         67 
 26.7          82 
 26.72         78 
 26.74         70 
 26.76         77 
 26.78         73 
 26.8          72 
 26.82         73 
 26.84         79 
 26.86         78 
 26.88         57 
 26.9          59 
 26.92         64 
 26.94         86 
 26.96         84 
 26.98         67 
 27            74 
 27.02         77 
 27.04         94 
 27.06         76 
 27.08         74 
 27.1          84 
 27.12         67 
 27.14         75 
 27.16         81 
 27.18         69 
 27.2          72 
 27.22         71 
 27.24         79 
 27.26         74 
 27.28         72 
 27.3          91 
 27.32         69 
 27.34         99 
 27.36         74 
 27.38         71 
 27.4          84 
 27.42         76 
 27.44         69 
 27.46         73 
 27.48         66 
 27.5          57 
 27.52         81 
 27.54         57 
 27.56         60 
 27.58         85 
 27.6          62 
 27.62         81 
 27.64         74 
 27.66         70 
 27.68         60 
 27.7          71 
 27.72         83 
 27.74         68 
 27.76         86 
 27.78         69 
 27.8          75 
 27.82         75 
 27.84         85 
 27.86         69 
 27.88         82 
 27.9          60 
 27.92         94 
 27.94         82 
 27.96         78 
 27.98         75 
 28            67 
 28.02         79 
 28.04         69 
 28.06         78 
 28.08         85 
 28.1          87 
 28.12         77 
 28.14         80 
 28.16         102 
 28.18         94 
 28.2          79 
 28.22         64 
 28.24         82 
 28.26         82 
 28.28         48 
 28.3          77 
 28.32         82 
 28.34         90 
 28.36         65 
 28.38         76 
 28.4          74 
 28.42         63 
 28.44         78 
 28.46         68 
 28.48         78 
 28.5          62 
 28.52         76 
 28.54         59 
 28.56         58 
 28.58         78 
 28.6          59 
 28.62         83 
 28.64         84 
 28.66         91 
 28.68         83 
 28.7          65 
 28.72         70 
 28.74         84 
 28.76         77 
 28.78         72 
 28.8          77 
 28.82         71 
 28.84         78 
 28.86         61 
 28.88         75 
 28.9          70 
 28.92         83 
 28.94         75 
 28.96         77 
 28.98         56 
 29            82 
 29.02         77 
 29.04         60 
 29.06         74 
 29.08         90 
 29.1          72 
 29.12         76 
 29.14         74 
 29.16         72 
 29.18         70 
 29.2          79 
 29.22         77 
 29.24         75 
 29.26         89 
 29.28         83 
 29.3          84 
 29.32         76 
 29.34         90 
 29.36         89 
 29.38         92 
 29.4          101 
 29.42         79 
 29.44         105 
 29.46         100 
 29.48         103 
 29.5          106 
 29.52         104 
 29.54         117 
 29.56         115 
 29.58         123 
 29.6          125 
 29.62         134 
 29.64         138 
 29.66         173 
 29.68         158 
 29.7          187 
 29.72         221 
 29.74         199 
 29.76         256 
 29.78         256 
 29.8          299 
 29.82         319 
 29.84         352 
 29.86         453 
 29.88         453 
 29.9          506 
 29.92         540 
 29.94         607 
 29.96         568 
 29.98         594 
 30            584 
 30.02         563 
 30.04         603 
 30.06         637 
 30.08         599 
 30.1          619 
 30.12         570 
 30.14         654 
 30.16         583 
 30.18         583 
 30.2          586 
 30.22         568 
 30.24         508 
 30.26         549 
 30.28         522 
 30.3          470 
 30.32         455 
 30.34         480 
 30.36         407 
 30.38         408 
 30.4          398 
 30.42         340 
 30.44         335 
 30.46         310 
 30.48         273 
 30.5          301 
 30.52         267 
 30.54         249 
 30.56         223 
 30.58         205 
 30.6          191 
 30.62         176 
 30.64         178 
 30.66         181 
 30.68         173 
 30.7          165 
 30.72         161 
 30.74         142 
 30.76         147 
 30.78         121 
 30.8          99 
 30.82         92 
 30.84         100 
 30.86         81 
 30.88         94 
 30.9          77 
 30.92         79 
 30.94         78 
 30.96         91 
 30.98         76 
 31            64 
 31.02         88 
 31.04         64 
 31.06         90 
 31.08         76 
 31.1          61 
 31.12         78 
 31.14         77 
 31.16         76 
 31.18         74 
 31.2          81 
 31.22         82 
 31.24         78 
 31.26         66 
 31.28         61 
 31.3          84 
 31.32         71 
 31.34         85 
 31.36         82 
 31.38         79 
 31.4          91 
 31.42         68 
 31.44         93 
 31.46         69 
 31.48         104 
 31.5          77 
 31.52         73 
 31.54         88 
 31.56         86 
 31.58         91 
 31.6          79 
 31.62         73 
 31.64         97 
 31.66         64 
 31.68         65 
 31.7          81 
 31.72         71 
 31.74         77 
 31.76         68 
 31.78         74 
 31.8          62 
 31.82         66 
 31.84         75 
 31.86         73 
 31.88         70 
 31.9          79 
 31.92         72 
 31.94         67 
 31.96         74 
 31.98         55 
 32            77 
 32.02         61 
 32.04         71 
 32.06         64 
 32.08         75 
 32.1          73 
 32.12         63 
 32.14         63 
 32.16         68 
 32.18         73 
 32.2          73 
 32.22         57 
 32.24         75 
 32.26         66 
 32.28         73 
 32.3          72 
 32.32         74 
 32.34         90 
 32.36         57 
 32.38         69 
 32.4          72 
 32.42         62 
 32.44         74 
 32.46         56 
 32.48         57 
 32.5          73 
 32.52         89 
 32.54         90 
 32.56         67 
 32.58         59 
 32.6          73 
 32.62         75 
 32.64         62 
 32.66         77 
 32.68         77 
 32.7          58 
 32.72         61 
 32.74         69 
 32.76         66 
 32.78         58 
 32.8          64 
 32.82         63 
 32.84         75 
 32.86         74 
 32.88         73 
 32.9          81 
 32.92         79 
 32.94         90 
 32.96         83 
 32.98         83 
 33            62 
 33.02         77 
 33.04         63 
 33.06         70 
 33.08         81 
 33.1          79 
 33.12         72 
 33.14         63 
 33.16         75 
 33.18         70 
 33.2          55 
 33.22         69 
 33.24         81 
 33.26         71 
 33.28         59 
 33.3          73 
 33.32         85 
 33.34         71 
 33.36         71 
 33.38         85 
 33.4          74 
 33.42         78 
 33.44         73 
 33.46         80 
 33.48         91 
 33.5          61 
 33.52         61 
 33.54         77 
 33.56         74 
 33.58         75 
 33.6          78 
 33.62         69 
 33.64         59 
 33.66         79 
 33.68         90 
 33.7          71 
 33.72         76 
 33.74         75 
 33.76         61 
 33.78         71 
 33.8          80 
 33.82         71 
 33.84         91 
 33.86         78 
 33.88         77 
 33.9          76 
 33.92         85 
 33.94         76 
 33.96         83 
 33.98         85 
 34            86 
 34.02         84 
 34.04         94 
 34.06         96 
 34.08         94 
 34.1          74 
 34.12         84 
 34.14         79 
 34.16         92 
 34.18         81 
 34.2          80 
 34.22         104 
 34.24         90 
 34.26         100 
 34.28         92 
 34.3          115 
 34.32         101 
 34.34         110 
 34.36         115 
 34.38         107 
 34.4          132 
 34.42         97 
 34.44         114 
 34.46         116 
 34.48         131 
 34.5          128 
 34.52         128 
 34.54         136 
 34.56         139 
 34.58         133 
 34.6          142 
 34.62         152 
 34.64         159 
 34.66         179 
 34.68         163 
 34.7          192 
 34.72         184 
 34.74         200 
 34.76         212 
 34.78         241 
 34.8          203 
 34.82         227 
 34.84         238 
 34.86         267 
 34.88         292 
 34.9          306 
 34.92         313 
 34.94         356 
 34.96         363 
 34.98         441 
 35            442 
 35.02         542 
 35.04         566 
 35.06         603 
 35.08         648 
 35.1          736 
 35.12         896 
 35.14         964 
 35.16         1034 
 35.18         1101 
 35.2          1188 
 35.22         1341 
 35.24         1410 
 35.26         1489 
 35.28         1527 
 35.3          1584 
 35.32         1659 
 35.34         1648 
 35.36         1687 
 35.38         1791 
 35.4          1746 
 35.42         1761 
 35.44         1895 
 35.46         1949 
 35.48         1983 
 35.5          1910 
 35.52         2010 
 35.54         2035 
 35.56         2074 
 35.58         2017 
 35.6          2175 
 35.62         2213 
 35.64         2162 
 35.66         2073 
 35.68         2037 
 35.7          2161 
 35.72         2114 
 35.74         1984 
 35.76         1988 
 35.78         1972 
 35.8          1899 
 35.82         1913 
 35.84         1864 
 35.86         1817 
 35.88         1733 
 35.9          1798 
 35.92         1724 
 35.94         1607 
 35.96         1599 
 35.98         1532 
 36            1563 
 36.02         1507 
 36.04         1500 
 36.06         1387 
 36.08         1434 
 36.1          1438 
 36.12         1319 
 36.14         1224 
 36.16         1153 
 36.18         1052 
 36.2          949 
 36.22         834 
 36.24         713 
 36.26         587 
 36.28         481 
 36.3          438 
 36.32         389 
 36.34         293 
 36.36         253 
 36.38         232 
 36.4          229 
 36.42         190 
 36.44         177 
 36.46         168 
 36.48         166 
 36.5          155 
 36.52         153 
 36.54         148 
 36.56         148 
 36.58         167 
 36.6          121 
 36.62         152 
 36.64         132 
 36.66         146 
 36.68         145 
 36.7          143 
 36.72         148 
 36.74         143 
 36.76         142 
 36.78         148 
 36.8          174 
 36.82         176 
 36.84         184 
 36.86         225 
 36.88         223 
 36.9          242 
 36.92         191 
 36.94         251 
 36.96         241 
 36.98         247 
 37            236 
 37.02         243 
 37.04         265 
 37.06         258 
 37.08         245 
 37.1          273 
 37.12         295 
 37.14         277 
 37.16         318 
 37.18         307 
 37.2          291 
 37.22         369 
 37.24         339 
 37.26         342 
 37.28         417 
 37.3          409 
 37.32         466 
 37.34         395 
 37.36         403 
 37.38         432 
 37.4          452 
 37.42         417 
 37.44         401 
 37.46         386 
 37.48         401 
 37.5          367 
 37.52         323 
 37.54         345 
 37.56         333 
 37.58         323 
 37.6          302 
 37.62         313 
 37.64         302 
 37.66         268 
 37.68         251 
 37.7          287 
 37.72         286 
 37.74         264 
 37.76         280 
 37.78         280 
 37.8          276 
 37.82         242 
 37.84         224 
 37.86         216 
 37.88         182 
 37.9          170 
 37.92         155 
 37.94         145 
 37.96         121 
 37.98         113 
 38            92 
 38.02         83 
 38.04         71 
 38.06         76 
 38.08         70 
 38.1          86 
 38.12         65 
 38.14         75 
 38.16         71 
 38.18         63 
 38.2          62 
 38.22         61 
 38.24         80 
 38.26         46 
 38.28         73 
 38.3          67 
 38.32         68 
 38.34         68 
 38.36         44 
 38.38         66 
 38.4          69 
 38.42         56 
 38.44         70 
 38.46         43 
 38.48         54 
 38.5          50 
 38.52         57 
 38.54         47 
 38.56         53 
 38.58         65 
 38.6          58 
 38.62         51 
 38.64         43 
 38.66         57 
 38.68         58 
 38.7          56 
 38.72         43 
 38.74         62 
 38.76         57 
 38.78         54 
 38.8          49 
 38.82         59 
 38.84         40 
 38.86         41 
 38.88         49 
 38.9          29 
 38.92         43 
 38.94         52 
 38.96         44 
 38.98         46 
 39            60 
 39.02         53 
 39.04         51 
 39.06         57 
 39.08         50 
 39.1          64 
 39.12         68 
 39.14         57 
 39.16         53 
 39.18         53 
 39.2          45 
 39.22         44 
 39.24         41 
 39.26         52 
 39.28         45 
 39.3          43 
 39.32         49 
 39.34         46 
 39.36         41 
 39.38         47 
 39.4          46 
 39.42         49 
 39.44         47 
 39.46         66 
 39.48         45 
 39.5          48 
 39.52         47 
 39.54         44 
 39.56         59 
 39.58         52 
 39.6          46 
 39.62         47 
 39.64         46 
 39.66         63 
 39.68         56 
 39.7          44 
 39.72         47 
 39.74         53 
 39.76         52 
 39.78         41 
 39.8          42 
 39.82         53 
 39.84         47 
 39.86         43 
 39.88         62 
 39.9          50 
 39.92         43 
 39.94         62 
 39.96         47 
 39.98         42 
 40            44 
 40.02         46 
 40.04         42 
 40.06         36 
 40.08         51 
 40.1          48 
 40.12         45 
 40.14         44 
 40.16         57 
 40.18         57 
 40.2          58 
 40.22         42 
 40.24         58 
 40.26         40 
 40.28         46 
 40.3          40 
 40.32         53 
 40.34         50 
 40.36         49 
 40.38         51 
 40.4          46 
 40.42         50 
 40.44         47 
 40.46         51 
 40.48         44 
 40.5          46 
 40.52         48 
 40.54         49 
 40.56         42 
 40.58         55 
 40.6          46 
 40.62         48 
 40.64         45 
 40.66         47 
 40.68         54 
 40.7          54 
 40.72         51 
 40.74         48 
 40.76         50 
 40.78         48 
 40.8          45 
 40.82         44 
 40.84         56 
 40.86         43 
 40.88         39 
 40.9          52 
 40.92         53 
 40.94         47 
 40.96         42 
 40.98         41 
 41            60 
 41.02         54 
 41.04         55 
 41.06         51 
 41.08         61 
 41.1          54 
 41.12         60 
 41.14         48 
 41.16         42 
 41.18         64 
 41.2          56 
 41.22         56 
 41.24         56 
 41.26         55 
 41.28         48 
 41.3          61 
 41.32         43 
 41.34         48 
 41.36         67 
 41.38         47 
 41.4          63 
 41.42         52 
 41.44         56 
 41.46         50 
 41.48         54 
 41.5          48 
 41.52         48 
 41.54         61 
 41.56         53 
 41.58         57 
 41.6          73 
 41.62         37 
 41.64         49 
 41.66         47 
 41.68         55 
 41.7          57 
 41.72         72 
 41.74         65 
 41.76         63 
 41.78         65 
 41.8          77 
 41.82         57 
 41.84         51 
 41.86         65 
 41.88         62 
 41.9          72 
 41.92         49 
 41.94         65 
 41.96         69 
 41.98         64 
 42            67 
 42.02         85 
 42.04         66 
 42.06         65 
 42.08         75 
 42.1          74 
 42.12         66 
 42.14         86 
 42.16         84 
 42.18         87 
 42.2          86 
 42.22         93 
 42.24         83 
 42.26         91 
 42.28         107 
 42.3          96 
 42.32         116 
 42.34         96 
 42.36         102 
 42.38         135 
 42.4          110 
 42.42         101 
 42.44         108 
 42.46         124 
 42.48         162 
 42.5          160 
 42.52         145 
 42.54         181 
 42.56         174 
 42.58         176 
 42.6          161 
 42.62         197 
 42.64         183 
 42.66         226 
 42.68         258 
 42.7          260 
 42.72         331 
 42.74         312 
 42.76         328 
 42.78         339 
 42.8          343 
 42.82         356 
 42.84         407 
 42.86         409 
 42.88         404 
 42.9          420 
 42.92         445 
 42.94         485 
 42.96         467 
 42.98         497 
 43            494 
 43.02         541 
 43.04         578 
 43.06         570 
 43.08         610 
 43.1          629 
 43.12         689 
 43.14         700 
 43.16         722 
 43.18         826 
 43.2          783 
 43.22         819 
 43.24         843 
 43.26         919 
 43.28         966 
 43.3          969 
 43.32         1068 
 43.34         1054 
 43.36         1091 
 43.38         1084 
 43.4          1102 
 43.42         1197 
 43.44         1144 
 43.46         1108 
 43.48         1214 
 43.5          1153 
 43.52         1103 
 43.54         1081 
 43.56         1117 
 43.58         1038 
 43.6          1036 
 43.62         1103 
 43.64         1070 
 43.66         1020 
 43.68         1019 
 43.7          1030 
 43.72         971 
 43.74         948 
 43.76         1001 
 43.78         1027 
 43.8          1066 
 43.82         958 
 43.84         992 
 43.86         940 
 43.88         989 
 43.9          967 
 43.92         937 
 43.94         910 
 43.96         874 
 43.98         788 
 44            726 
 44.02         643 
 44.04         561 
 44.06         519 
 44.08         482 
 44.1          372 
 44.12         347 
 44.14         291 
 44.16         268 
 44.18         196 
 44.2          191 
 44.22         171 
 44.24         176 
 44.26         144 
 44.28         130 
 44.3          118 
 44.32         97 
 44.34         116 
 44.36         111 
 44.38         123 
 44.4          76 
 44.42         96 
 44.44         108 
 44.46         98 
 44.48         78 
 44.5          74 
 44.52         80 
 44.54         74 
 44.56         86 
 44.58         96 
 44.6          85 
 44.62         89 
 44.64         67 
 44.66         80 
 44.68         77 
 44.7          82 
 44.72         65 
 44.74         77 
 44.76         62 
 44.78         61 
 44.8          59 
 44.82         78 
 44.84         76 
 44.86         69 
 44.88         55 
 44.9          56 
 44.92         59 
 44.94         76 
 44.96         48 
 44.98         61 
 45            63 
 45.02         57 
 45.04         48 
 45.06         51 
 45.08         48 
 45.1          62 
 45.12         50 
 45.14         49 
 45.16         51 
 45.18         67 
 45.2          47 
 45.22         62 
 45.24         46 
 45.26         45 
 45.28         60 
 45.3          50 
 45.32         55 
 45.34         43 
 45.36         44 
 45.38         57 
 45.4          49 
 45.42         49 
 45.44         52 
 45.46         48 
 45.48         49 
 45.5          42 
 45.52         42 
 45.54         54 
 45.56         45 
 45.58         52 
 45.6          57 
 45.62         42 
 45.64         49 
 45.66         52 
 45.68         42 
 45.7          46 
 45.72         38 
 45.74         46 
 45.76         46 
 45.78         54 
 45.8          44 
 45.82         47 
 45.84         41 
 45.86         49 
 45.88         42 
 45.9          51 
 45.92         34 
 45.94         41 
 45.96         47 
 45.98         48 
 46            44 
 46.02         43 
 46.04         51 
 46.06         49 
 46.08         40 
 46.1          39 
 46.12         46 
 46.14         47 
 46.16         52 
 46.18         49 
 46.2          48 
 46.22         44 
 46.24         32 
 46.26         53 
 46.28         56 
 46.3          39 
 46.32         44 
 46.34         43 
 46.36         42 
 46.38         37 
 46.4          37 
 46.42         60 
 46.44         37 
 46.46         47 
 46.48         54 
 46.5          50 
 46.52         62 
 46.54         50 
 46.56         49 
 46.58         53 
 46.6          49 
 46.62         40 
 46.64         48 
 46.66         56 
 46.68         48 
 46.7          57 
 46.72         53 
 46.74         51 
 46.76         52 
 46.78         49 
 46.8          47 
 46.82         47 
 46.84         41 
 46.86         49 
 46.88         64 
 46.9          53 
 46.92         48 
 46.94         52 
 46.96         56 
 46.98         34 
 47            58 
 47.02         51 
 47.04         48 
 47.06         53 
 47.08         49 
 47.1          55 
 47.12         68 
 47.14         40 
 47.16         56 
 47.18         67 
 47.2          49 
 47.22         55 
 47.24         42 
 47.26         57 
 47.28         60 
 47.3          57 
 47.32         64 
 47.34         84 
 47.36         61 
 47.38         68 
 47.4          83 
 47.42         64 
 47.44         90 
 47.46         76 
 47.48         81 
 47.5          92 
 47.52         92 
 47.54         97 
 47.56         88 
 47.58         91 
 47.6          91 
 47.62         99 
 47.64         115 
 47.66         116 
 47.68         106 
 47.7          123 
 47.72         98 
 47.74         95 
 47.76         109 
 47.78         105 
 47.8          124 
 47.82         134 
 47.84         121 
 47.86         112 
 47.88         116 
 47.9          116 
 47.92         141 
 47.94         150 
 47.96         162 
 47.98         132 
 48            141 
 48.02         142 
 48.04         145 
 48.06         131 
 48.08         143 
 48.1          149 
 48.12         134 
 48.14         136 
 48.16         148 
 48.18         135 
 48.2          142 
 48.22         128 
 48.24         119 
 48.26         94 
 48.28         98 
 48.3          91 
 48.32         91 
 48.34         74 
 48.36         50 
 48.38         53 
 48.4          74 
 48.42         51 
 48.44         53 
 48.46         51 
 48.48         55 
 48.5          47 
 48.52         57 
 48.54         56 
 48.56         50 
 48.58         48 
 48.6          43 
 48.62         52 
 48.64         52 
 48.66         47 
 48.68         57 
 48.7          60 
 48.72         45 
 48.74         39 
 48.76         55 
 48.78         47 
 48.8          37 
 48.82         57 
 48.84         57 
 48.86         50 
 48.88         56 
 48.9          49 
 48.92         56 
 48.94         50 
 48.96         34 
 48.98         57 
 49            55 
 49.02         57 
 49.04         53 
 49.06         52 
 49.08         54 
 49.1          40 
 49.12         56 
 49.14         57 
 49.16         42 
 49.18         49 
 49.2          45 
 49.22         45 
 49.24         59 
 49.26         58 
 49.28         50 
 49.3          42 
 49.32         44 
 49.34         40 
 49.36         48 
 49.38         60 
 49.4          47 
 49.42         58 
 49.44         43 
 49.46         40 
 49.48         36 
 49.5          46 
 49.52         65 
 49.54         42 
 49.56         59 
 49.58         37 
 49.6          59 
 49.62         50 
 49.64         50 
 49.66         46 
 49.68         59 
 49.7          44 
 49.72         47 
 49.74         65 
 49.76         45 
 49.78         41 
 49.8          57 
 49.82         52 
 49.84         43 
 49.86         38 
 49.88         55 
 49.9          45 
 49.92         59 
 49.94         54 
 49.96         57 
 49.98         50 
 50            61 
 50.02         52 
 50.04         60 
 50.06         77 
 50.08         64 
 50.1          61 
 50.12         66 
 50.14         72 
 50.16         55 
 50.18         68 
 50.2          53 
 50.22         54 
 50.24         70 
 50.26         67 
 50.28         62 
 50.3          69 
 50.32         41 
 50.34         65 
 50.36         58 
 50.38         67 
 50.4          74 
 50.42         83 
 50.44         71 
 50.46         53 
 50.48         82 
 50.5          57 
 50.52         63 
 50.54         56 
 50.56         59 
 50.58         45 
 50.6          63 
 50.62         56 
 50.64         64 
 50.66         65 
 50.68         54 
 50.7          50 
 50.72         66 
 50.74         65 
 50.76         54 
 50.78         55 
 50.8          55 
 50.82         54 
 50.84         50 
 50.86         50 
 50.88         66 
 50.9          52 
 50.92         57 
 50.94         49 
 50.96         59 
 50.98         41 
 51            41 
 51.02         57 
 51.04         52 
 51.06         49 
 51.08         57 
 51.1          48 
 51.12         41 
 51.14         53 
 51.16         47 
 51.18         46 
 51.2          44 
 51.22         44 
 51.24         53 
 51.26         51 
 51.28         51 
 51.3          42 
 51.32         50 
 51.34         47 
 51.36         35 
 51.38         56 
 51.4          44 
 51.42         51 
 51.44         51 
 51.46         53 
 51.48         44 
 51.5          42 
 51.52         52 
 51.54         44 
 51.56         52 
 51.58         50 
 51.6          41 
 51.62         42 
 51.64         47 
 51.66         42 
 51.68         49 
 51.7          52 
 51.72         36 
 51.74         40 
 51.76         45 
 51.78         56 
 51.8          43 
 51.82         49 
 51.84         47 
 51.86         47 
 51.88         41 
 51.9          48 
 51.92         52 
 51.94         49 
 51.96         54 
 51.98         55 
 52            56 
 52.02         57 
 52.04         61 
 52.06         47 
 52.08         44 
 52.1          45 
 52.12         42 
 52.14         38 
 52.16         42 
 52.18         49 
 52.2          49 
 52.22         44 
 52.24         55 
 52.26         46 
 52.28         54 
 52.3          54 
 52.32         43 
 52.34         51 
 52.36         46 
 52.38         64 
 52.4          63 
 52.42         43 
 52.44         46 
 52.46         39 
 52.48         46 
 52.5          49 
 52.52         52 
 52.54         39 
 52.56         62 
 52.58         55 
 52.6          56 
 52.62         58 
 52.64         49 
 52.66         63 
 52.68         51 
 52.7          56 
 52.72         44 
 52.74         50 
 52.76         55 
 52.78         55 
 52.8          51 
 52.82         47 
 52.84         55 
 52.86         51 
 52.88         73 
 52.9          66 
 52.92         64 
 52.94         60 
 52.96         74 
 52.98         83 
 53            69 
 53.02         88 
 53.04         83 
 53.06         86 
 53.08         108 
 53.1          97 
 53.12         113 
 53.14         93 
 53.16         115 
 53.18         108 
 53.2          99 
 53.22         119 
 53.24         98 
 53.26         128 
 53.28         109 
 53.3          126 
 53.32         122 
 53.34         109 
 53.36         114 
 53.38         120 
 53.4          110 
 53.42         121 
 53.44         114 
 53.46         100 
 53.48         110 
 53.5          115 
 53.52         123 
 53.54         139 
 53.56         123 
 53.58         120 
 53.6          119 
 53.62         115 
 53.64         134 
 53.66         128 
 53.68         109 
 53.7          138 
 53.72         107 
 53.74         109 
 53.76         141 
 53.78         126 
 53.8          119 
 53.82         119 
 53.84         118 
 53.86         108 
 53.88         109 
 53.9          134 
 53.92         117 
 53.94         105 
 53.96         108 
 53.98         123 
 54            97 
 54.02         106 
 54.04         103 
 54.06         94 
 54.08         104 
 54.1          90 
 54.12         100 
 54.14         79 
 54.16         90 
 54.18         64 
 54.2          92 
 54.22         67 
 54.24         87 
 54.26         72 
 54.28         88 
 54.3          72 
 54.32         77 
 54.34         76 
 54.36         75 
 54.38         73 
 54.4          74 
 54.42         64 
 54.44         68 
 54.46         83 
 54.48         73 
 54.5          57 
 54.52         62 
 54.54         68 
 54.56         68 
 54.58         62 
 54.6          65 
 54.62         38 
 54.64         68 
 54.66         64 
 54.68         67 
 54.7          62 
 54.72         61 
 54.74         61 
 54.76         56 
 54.78         53 
 54.8          51 
 54.82         57 
 54.84         44 
 54.86         44 
 54.88         59 
 54.9          63 
 54.92         54 
 54.94         61 
 54.96         54 
 54.98         46 
 55            53 
 55.02         41 
 55.04         54 
 55.06         59 
 55.08         55 
 55.1          49 
 55.12         45 
 55.14         66 
 55.16         55 
 55.18         59 
 55.2          73 
 55.22         51 
 55.24         50 
 55.26         57 
 55.28         51 
 55.3          63 
 55.32         53 
 55.34         68 
 55.36         56 
 55.38         36 
 55.4          57 
 55.42         57 
 55.44         71 
 55.46         52 
 55.48         54 
 55.5          53 
 55.52         59 
 55.54         51 
 55.56         65 
 55.58         65 
 55.6          60 
 55.62         57 
 55.64         54 
 55.66         39 
 55.68         59 
 55.7          54 
 55.72         55 
 55.74         48 
 55.76         79 
 55.78         64 
 55.8          51 
 55.82         57 
 55.84         59 
 55.86         77 
 55.88         74 
 55.9          82 
 55.92         84 
 55.94         52 
 55.96         74 
 55.98         60 
 56            87 
 56.02         73 
 56.04         71 
 56.06         69 
 56.08         79 
 56.1          66 
 56.12         81 
 56.14         81 
 56.16         104 
 56.18         100 
 56.2          88 
 56.22         87 
 56.24         98 
 56.26         107 
 56.28         122 
 56.3          102 
 56.32         139 
 56.34         121 
 56.36         130 
 56.38         119 
 56.4          165 
 56.42         163 
 56.44         146 
 56.46         163 
 56.48         185 
 56.5          204 
 56.52         211 
 56.54         231 
 56.56         239 
 56.58         264 
 56.6          243 
 56.62         256 
 56.64         290 
 56.66         256 
 56.68         286 
 56.7          284 
 56.72         313 
 56.74         301 
 56.76         347 
 56.78         332 
 56.8          362 
 56.82         341 
 56.84         387 
 56.86         374 
 56.88         340 
 56.9          371 
 56.92         340 
 56.94         403 
 56.96         424 
 56.98         419 
 57            435 
 57.02         433 
 57.04         393 
 57.06         457 
 57.08         423 
 57.1          433 
 57.12         449 
 57.14         434 
 57.16         466 
 57.18         519 
 57.2          479 
 57.22         502 
 57.24         476 
 57.26         459 
 57.28         494 
 57.3          510 
 57.32         530 
 57.34         508 
 57.36         483 
 57.38         516 
 57.4          526 
 57.42         482 
 57.44         488 
 57.46         511 
 57.48         562 
 57.5          534 
 57.52         535 
 57.54         500 
 57.56         535 
 57.58         486 
 57.6          491 
 57.62         455 
 57.64         469 
 57.66         459 
 57.68         518 
 57.7          460 
 57.72         530 
 57.74         491 
 57.76         478 
 57.78         496 
 57.8          478 
 57.82         479 
 57.84         443 
 57.86         474 
 57.88         483 
 57.9          497 
 57.92         474 
 57.94         461 
 57.96         439 
 57.98         462 
 58            503 
 58.02         456 
 58.04         476 
 58.06         504 
 58.08         481 
 58.1          467 
 58.12         470 
 58.14         469 
 58.16         430 
 58.18         418 
 58.2          416 
 58.22         392 
 58.24         373 
 58.26         328 
 58.28         327 
 58.3          230 
 58.32         262 
 58.34         212 
 58.36         208 
 58.38         196 
 58.4          169 
 58.42         144 
 58.44         139 
 58.46         108 
 58.48         113 
 58.5          104 
 58.52         99 
 58.54         84 
 58.56         74 
 58.58         80 
 58.6          82 
 58.62         78 
 58.64         69 
 58.66         54 
 58.68         58 
 58.7          65 
 58.72         69 
 58.74         58 
 58.76         64 
 58.78         54 
 58.8          47 
 58.82         53 
 58.84         62 
 58.86         47 
 58.88         55 
 58.9          67 
 58.92         64 
 58.94         61 
 58.96         68 
 58.98         66 
 59            45 
 59.02         58 
 59.04         56 
 59.06         51 
 59.08         47 
 59.1          54 
 59.12         58 
 59.14         54 
 59.16         54 
 59.18         59 
 59.2          52 
 59.22         60 
 59.24         60 
 59.26         61 
 59.28         48 
 59.3          48 
 59.32         62 
 59.34         50 
 59.36         61 
 59.38         52 
 59.4          52 
 59.42         49 
 59.44         40 
 59.46         58 
 59.48         45 
 59.5          51 
 59.52         55 
 59.54         59 
 59.56         56 
 59.58         53 
 59.6          37 
 59.62         64 
 59.64         47 
 59.66         51 
 59.68         62 
 59.7          57 
 59.72         47 
 59.74         47 
 59.76         43 
 59.78         62 
 59.8          59 
 59.82         53 
 59.84         58 
 59.86         57 
 59.88         52 
 59.9          53 
 59.92         68 
 59.94         48 
 59.96         59 
 59.98         48 
 60            52 
 60.02         57 
 60.04         65 
 60.06         52 
 60.08         45 
 60.1          55 
 60.12         55 
 60.14         51 
 60.16         56 
 60.18         48 
 60.2          55 
 60.22         52 
 60.24         44 
 60.26         50 
 60.28         63 
 60.3          44 
 60.32         68 
 60.34         49 
 60.36         56 
 60.38         54 
 60.4          41 
 60.42         41 
 60.44         53 
 60.46         59 
 60.48         45 
 60.5          39 
 60.52         50 
 60.54         50 
 60.56         53 
 60.58         47 
 60.6          53 
 60.62         49 
 60.64         36 
 60.66         46 
 60.68         57 
 60.7          43 
 60.72         42 
 60.74         48 
 60.76         55 
 60.78         59 
 60.8          51 
 60.82         34 
 60.84         43 
 60.86         43 
 60.88         40 
 60.9          57 
 60.92         34 
 60.94         37 
 60.96         36 
 60.98         44 
 61            40 
 61.02         47 
 61.04         48 
 61.06         58 
 61.08         54 
 61.1          51 
 61.12         54 
 61.14         43 
 61.16         61 
 61.18         44 
 61.2          52 
 61.22         57 
 61.24         46 
 61.26         52 
 61.28         53 
 61.3          65 
 61.32         50 
 61.34         55 
 61.36         75 
 61.38         44 
 61.4          46 
 61.42         46 
 61.44         53 
 61.46         58 
 61.48         64 
 61.5          63 
 61.52         69 
 61.54         55 
 61.56         73 
 61.58         66 
 61.6          75 
 61.62         69 
 61.64         60 
 61.66         63 
 61.68         65 
 61.7          75 
 61.72         76 
 61.74         73 
 61.76         71 
 61.78         75 
 61.8          87 
 61.82         111 
 61.84         88 
 61.86         88 
 61.88         105 
 61.9          109 
 61.92         125 
 61.94         108 
 61.96         125 
 61.98         132 
 62            123 
 62.02         174 
 62.04         186 
 62.06         176 
 62.08         188 
 62.1          221 
 62.12         235 
 62.14         234 
 62.16         270 
 62.18         273 
 62.2          240 
 62.22         287 
 62.24         265 
 62.26         320 
 62.28         338 
 62.3          353 
 62.32         327 
 62.34         361 
 62.36         378 
 62.38         375 
 62.4          396 
 62.42         379 
 62.44         375 
 62.46         347 
 62.48         399 
 62.5          419 
 62.52         400 
 62.54         433 
 62.56         399 
 62.58         446 
 62.6          436 
 62.62         447 
 62.64         454 
 62.66         452 
 62.68         446 
 62.7          458 
 62.72         488 
 62.74         488 
 62.76         509 
 62.78         551 
 62.8          541 
 62.82         514 
 62.84         551 
 62.86         545 
 62.88         561 
 62.9          593 
 62.92         637 
 62.94         566 
 62.96         668 
 62.98         619 
 63            661 
 63.02         668 
 63.04         638 
 63.06         687 
 63.08         698 
 63.1          693 
 63.12         660 
 63.14         706 
 63.16         725 
 63.18         701 
 63.2          643 
 63.22         710 
 63.24         634 
 63.26         668 
 63.28         628 
 63.3          700 
 63.32         713 
 63.34         661 
 63.36         652 
 63.38         634 
 63.4          628 
 63.42         613 
 63.44         621 
 63.46         590 
 63.48         635 
 63.5          667 
 63.52         598 
 63.54         593 
 63.56         588 
 63.58         596 
 63.6          613 
 63.62         637 
 63.64         644 
 63.66         618 
 63.68         624 
 63.7          658 
 63.72         632 
 63.74         620 
 63.76         600 
 63.78         631 
 63.8          620 
 63.82         630 
 63.84         564 
 63.86         609 
 63.88         614 
 63.9          565 
 63.92         573 
 63.94         531 
 63.96         482 
 63.98         468 
 64            430 
 64.02         408 
 64.04         374 
 64.06         352 
 64.08         294 
 64.1          241 
 64.12         242 
 64.14         227 
 64.16         211 
 64.18         183 
 64.2          158 
 64.22         140 
 64.24         139 
 64.26         109 
 64.28         96 
 64.3          86 
 64.32         97 
 64.34         79 
 64.36         82 
 64.38         59 
 64.4          75 
 64.42         80 
 64.44         68 
 64.46         62 
 64.48         60 
 64.5          66 
 64.52         67 
 64.54         60 
 64.56         63 
 64.58         63 
 64.6          68 
 64.62         60 
 64.64         64 
 64.66         58 
 64.68         53 
 64.7          53 
 64.72         46 
 64.74         57 
 64.76         45 
 64.78         43 
 64.8          60 
 64.82         59 
 64.84         47 
 64.86         47 
 64.88         54 
 64.9          38 
 64.92         59 
 64.94         51 
 64.96         59 
 64.98         46 
 65            56 
 65.02         50 
 65.04         49 
 65.06         49 
 65.08         40 
 65.1          53 
 65.12         49 
 65.14         44 
 65.16         44 
 65.18         51 
 65.2          43 
 65.22         44 
 65.24         44 
 65.26         50 
 65.28         65 
 65.3          53 
 65.32         51 
 65.34         49 
 65.36         78 
 65.38         62 
 65.4          62 
 65.42         67 
 65.44         55 
 65.46         69 
 65.48         60 
 65.5          67 
 65.52         61 
 65.54         66 
 65.56         59 
 65.58         79 
 65.6          69 
 65.62         62 
 65.64         68 
 65.66         49 
 65.68         65 
 65.7          59 
 65.72         73 
 65.74         54 
 65.76         74 
 65.78         64 
 65.8          62 
 65.82         67 
 65.84         63 
 65.86         80 
 65.88         53 
 65.9          74 
 65.92         65 
 65.94         81 
 65.96         100 
 65.98         70 
 66            81 
 66.02         97 
 66.04         78 
 66.06         83 
 66.08         81 
 66.1          83 
 66.12         91 
 66.14         92 
 66.16         86 
 66.18         109 
 66.2          103 
 66.22         96 
 66.24         96 
 66.26         98 
 66.28         111 
 66.3          119 
 66.32         104 
 66.34         110 
 66.36         122 
 66.38         129 
 66.4          122 
 66.42         134 
 66.44         118 
 66.46         117 
 66.48         138 
 66.5          120 
 66.52         110 
 66.54         121 
 66.56         123 
 66.58         128 
 66.6          142 
 66.62         145 
 66.64         126 
 66.66         137 
 66.68         147 
 66.7          137 
 66.72         161 
 66.74         160 
 66.76         152 
 66.78         145 
 66.8          161 
 66.82         156 
 66.84         156 
 66.86         147 
 66.88         157 
 66.9          164 
 66.92         154 
 66.94         160 
 66.96         125 
 66.98         161 
 67            169 
 67.02         180 
 67.04         180 
 67.06         183 
 67.08         181 
 67.1          171 
 67.12         177 
 67.14         209 
 67.16         198 
 67.18         201 
 67.2          206 
 67.22         181 
 67.24         182 
 67.26         176 
 67.28         138 
 67.3          150 
 67.32         146 
 67.34         132 
 67.36         112 
 67.38         115 
 67.4          97 
 67.42         85 
 67.44         84 
 67.46         80 
 67.48         82 
 67.5          74 
 67.52         91 
 67.54         53 
 67.56         65 
 67.58         54 
 67.6          60 
 67.62         64 
 67.64         55 
 67.66         48 
 67.68         50 
 67.7          47 
 67.72         37 
 67.74         40 
 67.76         39 
 67.78         37 
 67.8          43 
 67.82         42 
 67.84         52 
 67.86         38 
 67.88         32 
 67.9          45 
 67.92         42 
 67.94         34 
 67.96         33 
 67.98         34 
 68            41 
 68.02         42 
 68.04         31 
 68.06         32 
 68.08         43 
 68.1          30 
 68.12         34 
 68.14         26 
 68.16         45 
 68.18         31 
 68.2          40 
 68.22         29 
 68.24         35 
 68.26         39 
 68.28         27 
 68.3          38 
 68.32         52 
 68.34         49 
 68.36         27 
 68.38         32 
 68.4          41 
 68.42         35 
 68.44         34 
 68.46         35 
 68.48         31 
 68.5          32 
 68.52         33 
 68.54         30 
 68.56         26 
 68.58         26 
 68.6          39 
 68.62         38 
 68.64         35 
 68.66         35 
 68.68         27 
 68.7          35 
 68.72         34 
 68.74         33 
 68.76         26 
 68.78         27 
 68.8          33 
 68.82         41 
 68.84         39 
 68.86         43 
 68.88         34 
 68.9          36 
 68.92         28 
 68.94         25 
 68.96         26 
 68.98         35 
 69            41 
 69.02         36 
 69.04         27 
 69.06         31 
 69.08         41 
 69.1          30 
 69.12         33 
 69.14         29 
 69.16         33 
 69.18         31 
 69.2          27 
 69.22         29 
 69.24         30 
 69.26         32 
 69.28         29 
 69.3          28 
 69.32         19 
 69.34         34 
 69.36         31 
 69.38         28 
 69.4          23 
 69.42         32 
 69.44         28 
 69.46         35 
 69.48         31 
 69.5          20 
 69.52         31 
 69.54         33 
 69.56         33 
 69.58         33 
 69.6          29 
 69.62         38 
 69.64         22 
 69.66         30 
 69.68         32 
 69.7          38 
 69.72         35 
 69.74         17 
 69.76         39 
 69.78         26 
 69.8          33 
 69.82         26 
 69.84         28 
 69.86         32 
 69.88         35 
 69.9          42 
 69.92         28 
 69.94         26 
 69.96         27 
 69.98         42 
 70            40 
 70.02         41 
 70.04         37 
 70.06         41 
 70.08         32 
 70.1          43 
 70.12         29 
 70.14         29 
 70.16         35 
 70.18         39 
 70.2          35 
 70.22         42 
 70.24         40 
 70.26         25 
 70.28         35 
 70.3          42 
 70.32         40 
 70.34         36 
 70.36         25 
 70.38         40 
 70.4          40 
 70.42         45 
 70.44         39 
 70.46         32 
 70.48         38 
 70.5          40 
 70.52         52 
 70.54         43 
 70.56         51 
 70.58         34 
 70.6          51 
 70.62         48 
 70.64         33 
 70.66         47 
 70.68         47 
 70.7          71 
 70.72         49 
 70.74         55 
 70.76         50 
 70.78         43 
 70.8          49 
 70.82         53 
 70.84         46 
 70.86         51 
 70.88         43 
 70.9          61 
 70.92         45 
 70.94         42 
 70.96         43 
 70.98         44 
 71            51 
 71.02         50 
 71.04         48 
 71.06         58 
 71.08         31 
 71.1          40 
 71.12         42 
 71.14         38 
 71.16         41 
 71.18         47 
 71.2          47 
 71.22         44 
 71.24         43 
 71.26         44 
 71.28         48 
 71.3          55 
 71.32         52 
 71.34         68 
 71.36         42 
 71.38         43 
 71.4          40 
 71.42         48 
 71.44         54 
 71.46         49 
 71.48         44 
 71.5          51 
 71.52         42 
 71.54         42 
 71.56         61 
 71.58         42 
 71.6          40 
 71.62         57 
 71.64         49 
 71.66         39 
 71.68         39 
 71.7          46 
 71.72         38 
 71.74         46 
 71.76         42 
 71.78         30 
 71.8          52 
 71.82         47 
 71.84         45 
 71.86         39 
 71.88         40 
 71.9          43 
 71.92         44 
 71.94         43 
 71.96         38 
 71.98         45 
 72            44 
 72.02         41 
 72.04         44 
 72.06         40 
 72.08         39 
 72.1          48 
 72.12         37 
 72.14         43 
 72.16         44 
 72.18         29 
 72.2          48 
 72.22         36 
 72.24         29 
 72.26         40 
 72.28         33 
 72.3          33 
 72.32         33 
 72.34         46 
 72.36         31 
 72.38         38 
 72.4          41 
 72.42         46 
 72.44         42 
 72.46         36 
 72.48         38 
 72.5          50 
 72.52         39 
 72.54         35 
 72.56         34 
 72.58         45 
 72.6          36 
 72.62         34 
 72.64         22 
 72.66         26 
 72.68         35 
 72.7          29 
 72.72         39 
 72.74         40 
 72.76         39 
 72.78         45 
 72.8          35 
 72.82         32 
 72.84         29 
 72.86         38 
 72.88         42 
 72.9          49 
 72.92         36 
 72.94         39 
 72.96         42 
 72.98         36 
 73            30 
 73.02         29 
 73.04         28 
 73.06         45 
 73.08         37 
 73.1          43 
 73.12         40 
 73.14         42 
 73.16         32 
 73.18         48 
 73.2          41 
 73.22         50 
 73.24         43 
 73.26         40 
 73.28         31 
 73.3          36 
 73.32         40 
 73.34         49 
 73.36         38 
 73.38         51 
 73.4          69 
 73.42         59 
 73.44         44 
 73.46         46 
 73.48         59 
 73.5          60 
 73.52         48 
 73.54         75 
 73.56         78 
 73.58         63 
 73.6          74 
 73.62         69 
 73.64         69 
 73.66         71 
 73.68         74 
 73.7          81 
 73.72         74 
 73.74         91 
 73.76         86 
 73.78         81 
 73.8          80 
 73.82         80 
 73.84         87 
 73.86         94 
 73.88         82 
 73.9          88 
 73.92         92 
 73.93999      93 
 73.96         99 
 73.98         85 
 74            104 
 74.02         102 
 74.04         96 
 74.06         102 
 74.08         91 
 74.1          102 
 74.12         116 
 74.14         93 
 74.16         102 
 74.18         113 
 74.2          108 
 74.22         81 
 74.24         101 
 74.26         104 
 74.28         112 
 74.3          114 
 74.32         124 
 74.34         112 
 74.36         113 
 74.38         113 
 74.4          117 
 74.42         115 
 74.43999      120 
 74.46         115 
 74.48         104 
 74.5          131 
 74.52         146 
 74.54         132 
 74.56         140 
 74.58         131 
 74.6          119 
 74.62         135 
 74.64         122 
 74.66         139 
 74.68         148 
 74.7          126 
 74.72         124 
 74.74         146 
 74.76         141 
 74.78         149 
 74.8          130 
 74.82         133 
 74.84         137 
 74.86         130 
 74.88         120 
 74.9          147 
 74.92         155 
 74.93999      152 
 74.96         154 
 74.98         138 
 75            163 
