Spinell  Original Data
 3151 
 12            384 
 12.02         381 
 12.04         356 
 12.06         395 
 12.08         355 
 12.1          376 
 12.12         364 
 12.14         417 
 12.16         361 
 12.18         409 
 12.2          314 
 12.22         407 
 12.24         383 
 12.26         400 
 12.28         366 
 12.3          384 
 12.32         440 
 12.34         387 
 12.36         405 
 12.38         368 
 12.4          370 
 12.42         327 
 12.44         350 
 12.46         355 
 12.48         396 
 12.5          360 
 12.52         390 
 12.54         312 
 12.56         371 
 12.58         359 
 12.6          338 
 12.62         353 
 12.64         344 
 12.66         392 
 12.68         341 
 12.7          394 
 12.72         347 
 12.74         416 
 12.76         335 
 12.78         374 
 12.8          324 
 12.82         362 
 12.84         345 
 12.86         428 
 12.88         311 
 12.9          340 
 12.92         382 
 12.94         386 
 12.96         341 
 12.98         355 
 13            391 
 13.02         320 
 13.04         360 
 13.06         320 
 13.08         347 
 13.1          298 
 13.12         370 
 13.14         320 
 13.16         346 
 13.18         335 
 13.2          334 
 13.22         320 
 13.24         341 
 13.26         353 
 13.28         313 
 13.3          338 
 13.32         345 
 13.34         314 
 13.36         341 
 13.38         314 
 13.4          341 
 13.42         319 
 13.44         298 
 13.46         295 
 13.48         346 
 13.5          333 
 13.52         317 
 13.54         289 
 13.56         291 
 13.58         302 
 13.6          311 
 13.62         282 
 13.64         316 
 13.66         278 
 13.68         281 
 13.7          264 
 13.72         299 
 13.74         296 
 13.76         267 
 13.78         243 
 13.8          281 
 13.82         279 
 13.84         274 
 13.86         259 
 13.88         272 
 13.9          289 
 13.92         261 
 13.94         289 
 13.96         248 
 13.98         265 
 14            265 
 14.02         274 
 14.04         267 
 14.06         281 
 14.08         259 
 14.1          256 
 14.12         269 
 14.14         262 
 14.16         287 
 14.18         252 
 14.2          238 
 14.22         234 
 14.24         238 
 14.26         225 
 14.28         247 
 14.3          230 
 14.32         234 
 14.34         224 
 14.36         254 
 14.38         233 
 14.4          226 
 14.42         229 
 14.44         222 
 14.46         231 
 14.48         209 
 14.5          216 
 14.52         210 
 14.54         246 
 14.56         204 
 14.58         199 
 14.6          192 
 14.62         226 
 14.64         230 
 14.66         213 
 14.68         194 
 14.7          207 
 14.72         243 
 14.74         222 
 14.76         199 
 14.78         210 
 14.8          204 
 14.82         190 
 14.84         215 
 14.86         203 
 14.88         184 
 14.9          181 
 14.92         202 
 14.94         179 
 14.96         178 
 14.98         183 
 15            189 
 15.02         190 
 15.04         182 
 15.06         193 
 15.08         149 
 15.1          166 
 15.12         167 
 15.14         190 
 15.16         196 
 15.18         171 
 15.2          170 
 15.22         183 
 15.24         172 
 15.26         176 
 15.28         170 
 15.3          185 
 15.32         169 
 15.34         184 
 15.36         161 
 15.38         166 
 15.4          181 
 15.42         166 
 15.44         154 
 15.46         178 
 15.48         143 
 15.5          180 
 15.52         165 
 15.54         157 
 15.56         173 
 15.58         147 
 15.6          158 
 15.62         161 
 15.64         144 
 15.66         152 
 15.68         155 
 15.7          142 
 15.72         173 
 15.74         139 
 15.76         124 
 15.78         148 
 15.8          138 
 15.82         158 
 15.84         135 
 15.86         151 
 15.88         155 
 15.9          143 
 15.92         145 
 15.94         118 
 15.96         176 
 15.98         133 
 16            143 
 16.02         147 
 16.04         147 
 16.06         150 
 16.08         139 
 16.1          140 
 16.12         141 
 16.14         151 
 16.16         158 
 16.18         134 
 16.2          131 
 16.22         125 
 16.24         126 
 16.26         141 
 16.28         132 
 16.3          136 
 16.32         131 
 16.34         139 
 16.36         126 
 16.38         139 
 16.4          123 
 16.42         123 
 16.44         126 
 16.46         134 
 16.48         130 
 16.5          113 
 16.52         119 
 16.54         126 
 16.56         131 
 16.58         137 
 16.6          131 
 16.62         126 
 16.64         123 
 16.66         144 
 16.68         116 
 16.7          136 
 16.72         136 
 16.74         136 
 16.76         124 
 16.78         132 
 16.8          110 
 16.82         122 
 16.84         127 
 16.86         134 
 16.88         112 
 16.9          139 
 16.92         143 
 16.94         109 
 16.96         127 
 16.98         139 
 17            122 
 17.02         142 
 17.04         110 
 17.06         102 
 17.08         149 
 17.1          136 
 17.12         105 
 17.14         135 
 17.16         120 
 17.18         134 
 17.2          122 
 17.22         140 
 17.24         132 
 17.26         124 
 17.28         123 
 17.3          139 
 17.32         104 
 17.34         131 
 17.36         103 
 17.38         125 
 17.4          114 
 17.42         141 
 17.44         101 
 17.46         128 
 17.48         128 
 17.5          119 
 17.52         113 
 17.54         131 
 17.56         139 
 17.58         122 
 17.6          129 
 17.62         130 
 17.64         122 
 17.66         129 
 17.68         114 
 17.7          114 
 17.72         117 
 17.74         108 
 17.76         116 
 17.78         146 
 17.8          137 
 17.82         126 
 17.84         131 
 17.86         143 
 17.88         124 
 17.9          116 
 17.92         148 
 17.94         136 
 17.96         154 
 17.98         150 
 18            166 
 18.02         141 
 18.04         148 
 18.06         178 
 18.08         175 
 18.1          185 
 18.12         203 
 18.14         200 
 18.16         194 
 18.18         252 
 18.2          249 
 18.22         293 
 18.24         304 
 18.26         321 
 18.28         355 
 18.3          390 
 18.32         443 
 18.34         496 
 18.36         602 
 18.38         652 
 18.4          744 
 18.42         820 
 18.44         1003 
 18.46         1116 
 18.48         1327 
 18.5          1507 
 18.52         1870 
 18.54         2039 
 18.56         2384 
 18.58         2839 
 18.6          3414 
 18.62         4062 
 18.64         4909 
 18.66         5591 
 18.68         6844 
 18.7          8007 
 18.72         9243 
 18.74         9933 
 18.76         10453 
 18.78         10296 
 18.8          9230 
 18.82         7539 
 18.84         5660 
 18.86         3819 
 18.88         2686 
 18.9          1694 
 18.92         1242 
 18.94         967 
 18.96         733 
 18.98         567 
 19            476 
 19.02         445 
 19.04         379 
 19.06         307 
 19.08         315 
 19.1          301 
 19.12         254 
 19.14         231 
 19.16         210 
 19.18         213 
 19.2          173 
 19.22         178 
 19.24         159 
 19.26         157 
 19.28         163 
 19.3          149 
 19.32         157 
 19.34         148 
 19.36         156 
 19.38         110 
 19.4          145 
 19.42         108 
 19.44         123 
 19.46         109 
 19.48         119 
 19.5          140 
 19.52         105 
 19.54         105 
 19.56         108 
 19.58         109 
 19.6          93 
 19.62         96 
 19.64         112 
 19.66         107 
 19.68         117 
 19.7          103 
 19.72         115 
 19.74         104 
 19.76         101 
 19.78         86 
 19.8          90 
 19.82         83 
 19.84         102 
 19.86         100 
 19.88         104 
 19.9          87 
 19.92         94 
 19.94         90 
 19.96         87 
 19.98         95 
 20            95 
 20.02         105 
 20.04         74 
 20.06         78 
 20.08         94 
 20.1          90 
 20.12         91 
 20.14         102 
 20.16         103 
 20.18         97 
 20.2          97 
 20.22         78 
 20.24         97 
 20.26         91 
 20.28         90 
 20.3          88 
 20.32         96 
 20.34         85 
 20.36         92 
 20.38         99 
 20.4          110 
 20.42         71 
 20.44         88 
 20.46         74 
 20.48         77 
 20.5          92 
 20.52         91 
 20.54         83 
 20.56         105 
 20.58         78 
 20.6          87 
 20.62         96 
 20.64         84 
 20.66         91 
 20.68         100 
 20.7          87 
 20.72         91 
 20.74         75 
 20.76         87 
 20.78         83 
 20.8          94 
 20.82         79 
 20.84         87 
 20.86         81 
 20.88         61 
 20.9          92 
 20.92         86 
 20.94         86 
 20.96         89 
 20.98         70 
 21            74 
 21.02         87 
 21.04         76 
 21.06         79 
 21.08         86 
 21.1          88 
 21.12         83 
 21.14         88 
 21.16         92 
 21.18         80 
 21.2          77 
 21.22         84 
 21.24         75 
 21.26         71 
 21.28         77 
 21.3          74 
 21.32         95 
 21.34         92 
 21.36         85 
 21.38         103 
 21.4          98 
 21.42         86 
 21.44         89 
 21.46         89 
 21.48         91 
 21.5          82 
 21.52         70 
 21.54         75 
 21.56         76 
 21.58         86 
 21.6          77 
 21.62         88 
 21.64         84 
 21.66         88 
 21.68         72 
 21.7          78 
 21.72         77 
 21.74         68 
 21.76         78 
 21.78         80 
 21.8          88 
 21.82         69 
 21.84         76 
 21.86         82 
 21.88         81 
 21.9          89 
 21.92         66 
 21.94         75 
 21.96         68 
 21.98         76 
 22            90 
 22.02         73 
 22.04         83 
 22.06         60 
 22.08         56 
 22.1          61 
 22.12         97 
 22.14         88 
 22.16         92 
 22.18         60 
 22.2          73 
 22.22         59 
 22.24         77 
 22.26         85 
 22.28         69 
 22.3          66 
 22.32         81 
 22.34         87 
 22.36         89 
 22.38         76 
 22.4          66 
 22.42         63 
 22.44         88 
 22.46         84 
 22.48         72 
 22.5          82 
 22.52         78 
 22.54         59 
 22.56         80 
 22.58         73 
 22.6          70 
 22.62         68 
 22.64         88 
 22.66         88 
 22.68         75 
 22.7          71 
 22.72         83 
 22.74         74 
 22.76         85 
 22.78         77 
 22.8          80 
 22.82         68 
 22.84         66 
 22.86         70 
 22.88         62 
 22.9          63 
 22.92         71 
 22.94         63 
 22.96         71 
 22.98         76 
 23            74 
 23.02         77 
 23.04         79 
 23.06         75 
 23.08         75 
 23.1          54 
 23.12         77 
 23.14         71 
 23.16         72 
 23.18         77 
 23.2          72 
 23.22         68 
 23.24         71 
 23.26         65 
 23.28         76 
 23.3          72 
 23.32         62 
 23.34         81 
 23.36         82 
 23.38         60 
 23.4          69 
 23.42         59 
 23.44         71 
 23.46         61 
 23.48         71 
 23.5          79 
 23.52         64 
 23.54         72 
 23.56         80 
 23.58         72 
 23.6          75 
 23.62         64 
 23.64         66 
 23.66         57 
 23.68         79 
 23.7          76 
 23.72         68 
 23.74         74 
 23.76         68 
 23.78         71 
 23.8          72 
 23.82         70 
 23.84         68 
 23.86         74 
 23.88         97 
 23.9          73 
 23.92         67 
 23.94         58 
 23.96         70 
 23.98         58 
 24            73 
 24.02         53 
 24.04         62 
 24.06         56 
 24.08         66 
 24.1          73 
 24.12         58 
 24.14         68 
 24.16         60 
 24.18         75 
 24.2          62 
 24.22         61 
 24.24         64 
 24.26         58 
 24.28         53 
 24.3          64 
 24.32         57 
 24.34         61 
 24.36         53 
 24.38         65 
 24.4          74 
 24.42         68 
 24.44         74 
 24.46         54 
 24.48         71 
 24.5          54 
 24.52         69 
 24.54         56 
 24.56         53 
 24.58         56 
 24.6          63 
 24.62         58 
 24.64         57 
 24.66         61 
 24.68         61 
 24.7          61 
 24.72         63 
 24.74         74 
 24.76         67 
 24.78         57 
 24.8          77 
 24.82         65 
 24.84         54 
 24.86         47 
 24.88         60 
 24.9          57 
 24.92         56 
 24.94         68 
 24.96         57 
 24.98         57 
 25            59 
 25.02         69 
 25.04         53 
 25.06         71 
 25.08         65 
 25.1          54 
 25.12         59 
 25.14         59 
 25.16         58 
 25.18         53 
 25.2          60 
 25.22         53 
 25.24         62 
 25.26         44 
 25.28         59 
 25.3          60 
 25.32         46 
 25.34         53 
 25.36         62 
 25.38         51 
 25.4          60 
 25.42         64 
 25.44         63 
 25.46         58 
 25.48         43 
 25.5          56 
 25.52         65 
 25.54         47 
 25.56         54 
 25.58         53 
 25.6          50 
 25.62         63 
 25.64         62 
 25.66         58 
 25.68         56 
 25.7          58 
 25.72         58 
 25.74         56 
 25.76         68 
 25.78         42 
 25.8          64 
 25.82         57 
 25.84         58 
 25.86         60 
 25.88         59 
 25.9          58 
 25.92         61 
 25.94         40 
 25.96         56 
 25.98         60 
 26            56 
 26.02         54 
 26.04         62 
 26.06         60 
 26.08         50 
 26.1          51 
 26.12         55 
 26.14         55 
 26.16         52 
 26.18         58 
 26.2          56 
 26.22         35 
 26.24         49 
 26.26         49 
 26.28         53 
 26.3          56 
 26.32         56 
 26.34         40 
 26.36         53 
 26.38         61 
 26.4          64 
 26.42         41 
 26.44         51 
 26.46         55 
 26.48         36 
 26.5          42 
 26.52         57 
 26.54         43 
 26.56         52 
 26.58         54 
 26.6          52 
 26.62         54 
 26.64         45 
 26.66         70 
 26.68         52 
 26.7          63 
 26.72         44 
 26.74         45 
 26.76         57 
 26.78         46 
 26.8          49 
 26.82         54 
 26.84         50 
 26.86         43 
 26.88         48 
 26.9          41 
 26.92         46 
 26.94         46 
 26.96         53 
 26.98         45 
 27            57 
 27.02         59 
 27.04         53 
 27.06         45 
 27.08         55 
 27.1          48 
 27.12         59 
 27.14         52 
 27.16         55 
 27.18         52 
 27.2          52 
 27.22         49 
 27.24         55 
 27.26         38 
 27.28         56 
 27.3          55 
 27.32         46 
 27.34         44 
 27.36         41 
 27.38         51 
 27.4          56 
 27.42         48 
 27.44         44 
 27.46         36 
 27.48         49 
 27.5          50 
 27.52         45 
 27.54         45 
 27.56         40 
 27.58         52 
 27.6          44 
 27.62         54 
 27.64         58 
 27.66         46 
 27.68         59 
 27.7          58 
 27.72         44 
 27.74         56 
 27.76         51 
 27.78         59 
 27.8          62 
 27.82         41 
 27.84         48 
 27.86         46 
 27.88         42 
 27.9          42 
 27.92         44 
 27.94         51 
 27.96         60 
 27.98         53 
 28            58 
 28.02         52 
 28.04         56 
 28.06         60 
 28.08         56 
 28.1          48 
 28.12         59 
 28.14         52 
 28.16         46 
 28.18         49 
 28.2          46 
 28.22         50 
 28.24         56 
 28.26         54 
 28.28         45 
 28.3          56 
 28.32         47 
 28.34         51 
 28.36         48 
 28.38         47 
 28.4          53 
 28.42         41 
 28.44         43 
 28.46         45 
 28.48         46 
 28.5          38 
 28.52         38 
 28.54         46 
 28.56         44 
 28.58         59 
 28.6          39 
 28.62         40 
 28.64         40 
 28.66         42 
 28.68         44 
 28.7          41 
 28.72         50 
 28.74         42 
 28.76         39 
 28.78         45 
 28.8          42 
 28.82         41 
 28.84         36 
 28.86         46 
 28.88         39 
 28.9          53 
 28.92         54 
 28.94         54 
 28.96         44 
 28.98         44 
 29            37 
 29.02         39 
 29.04         41 
 29.06         49 
 29.08         40 
 29.1          41 
 29.12         37 
 29.14         47 
 29.16         40 
 29.18         51 
 29.2          57 
 29.22         46 
 29.24         46 
 29.26         41 
 29.28         38 
 29.3          51 
 29.32         46 
 29.34         42 
 29.36         47 
 29.38         40 
 29.4          41 
 29.42         53 
 29.44         49 
 29.46         42 
 29.48         48 
 29.5          36 
 29.52         53 
 29.54         35 
 29.56         57 
 29.58         52 
 29.6          48 
 29.62         34 
 29.64         47 
 29.66         47 
 29.68         46 
 29.7          33 
 29.72         47 
 29.74         38 
 29.76         48 
 29.78         51 
 29.8          40 
 29.82         43 
 29.84         52 
 29.86         56 
 29.88         56 
 29.9          37 
 29.92         55 
 29.94         38 
 29.96         30 
 29.98         62 
 30            46 
 30.02         54 
 30.04         48 
 30.06         50 
 30.08         56 
 30.1          60 
 30.12         47 
 30.14         63 
 30.16         57 
 30.18         64 
 30.2          50 
 30.22         50 
 30.24         42 
 30.26         46 
 30.28         68 
 30.3          64 
 30.32         51 
 30.34         53 
 30.36         61 
 30.38         57 
 30.4          53 
 30.42         52 
 30.44         59 
 30.46         48 
 30.48         52 
 30.5          44 
 30.52         48 
 30.54         54 
 30.56         49 
 30.58         53 
 30.6          42 
 30.62         55 
 30.64         42 
 30.66         42 
 30.68         51 
 30.7          53 
 30.72         42 
 30.74         60 
 30.76         68 
 30.78         58 
 30.8          67 
 30.82         70 
 30.84         65 
 30.86         102 
 30.88         81 
 30.9          96 
 30.92         108 
 30.94         87 
 30.96         84 
 30.98         95 
 31            83 
 31.02         62 
 31.04         58 
 31.06         67 
 31.08         41 
 31.1          50 
 31.12         46 
 31.14         47 
 31.16         38 
 31.18         46 
 31.2          41 
 31.22         43 
 31.24         37 
 31.26         40 
 31.28         33 
 31.3          44 
 31.32         41 
 31.34         52 
 31.36         41 
 31.38         47 
 31.4          41 
 31.42         37 
 31.44         48 
 31.46         46 
 31.48         43 
 31.5          58 
 31.52         44 
 31.54         50 
 31.56         42 
 31.58         53 
 31.6          20 
 31.62         38 
 31.64         42 
 31.66         53 
 31.68         44 
 31.7          31 
 31.72         33 
 31.74         49 
 31.76         42 
 31.78         42 
 31.8          28 
 31.82         32 
 31.84         42 
 31.86         29 
 31.88         41 
 31.9          44 
 31.92         32 
 31.94         45 
 31.96         40 
 31.98         41 
 32            33 
 32.02         45 
 32.04         39 
 32.06         45 
 32.08         36 
 32.1          29 
 32.12         45 
 32.14         28 
 32.16         42 
 32.18         49 
 32.2          44 
 32.22         33 
 32.24         32 
 32.26         53 
 32.28         37 
 32.3          33 
 32.32         39 
 32.34         35 
 32.36         53 
 32.38         35 
 32.4          34 
 32.42         43 
 32.44         47 
 32.46         41 
 32.48         59 
 32.5          38 
 32.52         43 
 32.54         49 
 32.56         35 
 32.58         47 
 32.6          35 
 32.62         55 
 32.64         37 
 32.66         29 
 32.68         60 
 32.7          34 
 32.72         39 
 32.74         43 
 32.76         37 
 32.78         45 
 32.8          38 
 32.82         39 
 32.84         39 
 32.86         41 
 32.88         41 
 32.9          35 
 32.92         47 
 32.94         44 
 32.96         36 
 32.98         47 
 33            25 
 33.02         32 
 33.04         45 
 33.06         37 
 33.08         50 
 33.1          33 
 33.12         40 
 33.14         45 
 33.16         39 
 33.18         44 
 33.2          34 
 33.22         27 
 33.24         31 
 33.26         45 
 33.28         39 
 33.3          45 
 33.32         47 
 33.34         39 
 33.36         48 
 33.38         29 
 33.4          25 
 33.42         33 
 33.44         33 
 33.46         43 
 33.48         40 
 33.5          41 
 33.52         41 
 33.54         32 
 33.56         39 
 33.58         32 
 33.6          31 
 33.62         36 
 33.64         41 
 33.66         51 
 33.68         36 
 33.7          49 
 33.72         44 
 33.74         38 
 33.76         33 
 33.78         40 
 33.8          38 
 33.82         32 
 33.84         36 
 33.86         42 
 33.88         34 
 33.9          44 
 33.92         45 
 33.94         47 
 33.96         39 
 33.98         28 
 34            36 
 34.02         42 
 34.04         36 
 34.06         46 
 34.08         37 
 34.1          31 
 34.12         36 
 34.14         30 
 34.16         41 
 34.18         34 
 34.2          38 
 34.22         40 
 34.24         32 
 34.26         35 
 34.28         43 
 34.3          38 
 34.32         38 
 34.34         42 
 34.36         50 
 34.38         46 
 34.4          41 
 34.42         34 
 34.44         53 
 34.46         36 
 34.48         42 
 34.5          31 
 34.52         61 
 34.54         53 
 34.56         37 
 34.58         38 
 34.6          37 
 34.62         36 
 34.64         45 
 34.66         31 
 34.68         43 
 34.7          44 
 34.72         43 
 34.74         41 
 34.76         43 
 34.78         44 
 34.8          38 
 34.82         43 
 34.84         29 
 34.86         44 
 34.88         50 
 34.9          48 
 34.92         43 
 34.94         51 
 34.96         48 
 34.98         50 
 35            31 
 35.02         41 
 35.04         36 
 35.06         49 
 35.08         43 
 35.1          41 
 35.12         41 
 35.14         59 
 35.16         52 
 35.18         48 
 35.2          50 
 35.22         53 
 35.24         48 
 35.26         35 
 35.28         43 
 35.3          48 
 35.32         48 
 35.34         37 
 35.36         42 
 35.38         59 
 35.4          45 
 35.42         64 
 35.44         43 
 35.46         48 
 35.48         47 
 35.5          47 
 35.52         46 
 35.54         55 
 35.56         47 
 35.58         63 
 35.6          71 
 35.62         55 
 35.64         59 
 35.66         57 
 35.68         47 
 35.7          63 
 35.72         48 
 35.74         65 
 35.76         64 
 35.78         82 
 35.8          82 
 35.82         84 
 35.84         79 
 35.86         102 
 35.88         92 
 35.9          92 
 35.92         132 
 35.94         143 
 35.96         160 
 35.98         131 
 36            150 
 36.02         167 
 36.04         216 
 36.06         232 
 36.08         241 
 36.1          276 
 36.12         301 
 36.14         360 
 36.16         434 
 36.18         506 
 36.2          593 
 36.22         713 
 36.24         908 
 36.26         1139 
 36.28         1397 
 36.3          1822 
 36.32         2194 
 36.34         2849 
 36.36         3643 
 36.38         4132 
 36.4          4630 
 36.42         4985 
 36.44         4869 
 36.46         4590 
 36.48         4247 
 36.5          3516 
 36.52         2953 
 36.54         2413 
 36.56         1928 
 36.58         1443 
 36.6          944 
 36.62         717 
 36.64         581 
 36.66         435 
 36.68         348 
 36.7          306 
 36.72         256 
 36.74         202 
 36.76         191 
 36.78         138 
 36.8          155 
 36.82         147 
 36.84         142 
 36.86         120 
 36.88         124 
 36.9          105 
 36.92         108 
 36.94         86 
 36.96         72 
 36.98         97 
 37            76 
 37.02         77 
 37.04         90 
 37.06         74 
 37.08         71 
 37.1          66 
 37.12         64 
 37.14         66 
 37.16         70 
 37.18         72 
 37.2          65 
 37.22         70 
 37.24         61 
 37.26         68 
 37.28         57 
 37.3          79 
 37.32         75 
 37.34         94 
 37.36         78 
 37.38         112 
 37.4          119 
 37.42         119 
 37.44         91 
 37.46         120 
 37.48         105 
 37.5          120 
 37.52         116 
 37.54         118 
 37.56         89 
 37.58         90 
 37.6          99 
 37.62         73 
 37.64         80 
 37.66         79 
 37.68         83 
 37.7          79 
 37.72         73 
 37.74         87 
 37.76         100 
 37.78         70 
 37.8          101 
 37.82         113 
 37.84         107 
 37.86         123 
 37.88         123 
 37.9          167 
 37.92         188 
 37.94         251 
 37.96         288 
 37.98         360 
 38            497 
 38.02         567 
 38.04         690 
 38.06         830 
 38.08         934 
 38.1          1046 
 38.12         1062 
 38.14         1004 
 38.16         838 
 38.18         736 
 38.2          651 
 38.22         582 
 38.24         429 
 38.26         315 
 38.28         257 
 38.3          211 
 38.32         153 
 38.34         126 
 38.36         104 
 38.38         80 
 38.4          67 
 38.42         76 
 38.44         48 
 38.46         75 
 38.48         44 
 38.5          44 
 38.52         58 
 38.54         44 
 38.56         49 
 38.58         45 
 38.6          38 
 38.62         45 
 38.64         41 
 38.66         41 
 38.68         31 
 38.7          37 
 38.72         34 
 38.74         43 
 38.76         43 
 38.78         30 
 38.8          41 
 38.82         47 
 38.84         40 
 38.86         29 
 38.88         48 
 38.9          39 
 38.92         39 
 38.94         43 
 38.96         42 
 38.98         47 
 39            29 
 39.02         32 
 39.04         29 
 39.06         30 
 39.08         32 
 39.1          31 
 39.12         32 
 39.14         29 
 39.16         32 
 39.18         28 
 39.2          41 
 39.22         41 
 39.24         40 
 39.26         23 
 39.28         39 
 39.3          40 
 39.32         23 
 39.34         25 
 39.36         36 
 39.38         17 
 39.4          39 
 39.42         32 
 39.44         37 
 39.46         33 
 39.48         28 
 39.5          31 
 39.52         30 
 39.54         43 
 39.56         35 
 39.58         41 
 39.6          28 
 39.62         27 
 39.64         32 
 39.66         31 
 39.68         27 
 39.7          40 
 39.72         25 
 39.74         33 
 39.76         39 
 39.78         33 
 39.8          34 
 39.82         33 
 39.84         30 
 39.86         31 
 39.88         29 
 39.9          44 
 39.92         38 
 39.94         25 
 39.96         33 
 39.98         32 
 40            22 
 40.02         20 
 40.04         33 
 40.06         41 
 40.08         43 
 40.1          35 
 40.12         33 
 40.14         30 
 40.16         31 
 40.18         40 
 40.2          39 
 40.22         25 
 40.24         35 
 40.26         29 
 40.28         21 
 40.3          40 
 40.32         30 
 40.34         29 
 40.36         29 
 40.38         25 
 40.4          26 
 40.42         34 
 40.44         41 
 40.46         34 
 40.48         32 
 40.5          27 
 40.52         35 
 40.54         24 
 40.56         38 
 40.58         30 
 40.6          33 
 40.62         40 
 40.64         35 
 40.66         29 
 40.68         25 
 40.7          29 
 40.72         34 
 40.74         34 
 40.76         32 
 40.78         30 
 40.8          31 
 40.82         35 
 40.84         28 
 40.86         35 
 40.88         26 
 40.9          24 
 40.92         26 
 40.94         37 
 40.96         28 
 40.98         32 
 41            20 
 41.02         35 
 41.04         31 
 41.06         34 
 41.08         39 
 41.1          29 
 41.12         33 
 41.14         19 
 41.16         29 
 41.18         27 
 41.2          35 
 41.22         26 
 41.24         29 
 41.26         33 
 41.28         39 
 41.3          19 
 41.32         42 
 41.34         30 
 41.36         36 
 41.38         28 
 41.4          31 
 41.42         28 
 41.44         32 
 41.46         16 
 41.48         34 
 41.5          38 
 41.52         33 
 41.54         36 
 41.56         26 
 41.58         32 
 41.6          30 
 41.62         31 
 41.64         31 
 41.66         30 
 41.68         32 
 41.7          30 
 41.72         29 
 41.74         35 
 41.76         27 
 41.78         28 
 41.8          37 
 41.82         28 
 41.84         42 
 41.86         23 
 41.88         29 
 41.9          38 
 41.92         24 
 41.94         42 
 41.96         34 
 41.98         27 
 42            28 
 42.02         35 
 42.04         33 
 42.06         30 
 42.08         30 
 42.1          30 
 42.12         32 
 42.14         35 
 42.16         32 
 42.18         30 
 42.2          39 
 42.22         37 
 42.24         27 
 42.26         44 
 42.28         33 
 42.3          30 
 42.32         29 
 42.34         35 
 42.36         39 
 42.38         38 
 42.4          39 
 42.42         33 
 42.44         35 
 42.46         45 
 42.48         40 
 42.5          27 
 42.52         35 
 42.54         32 
 42.56         38 
 42.58         36 
 42.6          34 
 42.62         46 
 42.64         26 
 42.66         41 
 42.68         44 
 42.7          37 
 42.72         34 
 42.74         34 
 42.76         33 
 42.78         40 
 42.8          36 
 42.82         39 
 42.84         43 
 42.86         52 
 42.88         37 
 42.9          34 
 42.92         24 
 42.94         32 
 42.96         35 
 42.98         37 
 43            35 
 43.02         48 
 43.04         47 
 43.06         34 
 43.08         43 
 43.1          43 
 43.12         43 
 43.14         48 
 43.16         57 
 43.18         44 
 43.2          55 
 43.22         58 
 43.24         68 
 43.26         48 
 43.28         70 
 43.3          84 
 43.32         68 
 43.34         75 
 43.36         94 
 43.38         86 
 43.4          121 
 43.42         128 
 43.44         137 
 43.46         134 
 43.48         182 
 43.5          180 
 43.52         179 
 43.54         194 
 43.56         230 
 43.58         176 
 43.6          201 
 43.62         172 
 43.64         164 
 43.66         184 
 43.68         170 
 43.7          131 
 43.72         130 
 43.74         153 
 43.76         138 
 43.78         155 
 43.8          112 
 43.82         180 
 43.84         173 
 43.86         165 
 43.88         201 
 43.9          233 
 43.92         247 
 43.94         243 
 43.96         340 
 43.98         318 
 44            389 
 44.02         398 
 44.04         495 
 44.06         550 
 44.08         741 
 44.1          874 
 44.12         1179 
 44.14         1381 
 44.16         1708 
 44.18         2188 
 44.2          2849 
 44.22         3410 
 44.24         4199 
 44.26         5036 
 44.28         5141 
 44.3          5416 
 44.32         5252 
 44.34         4864 
 44.36         4527 
 44.38         3950 
 44.4          3428 
 44.42         2917 
 44.44         2468 
 44.46         2117 
 44.48         1494 
 44.5          1182 
 44.52         847 
 44.54         654 
 44.56         516 
 44.58         452 
 44.6          371 
 44.62         306 
 44.64         263 
 44.66         238 
 44.68         222 
 44.7          196 
 44.72         178 
 44.74         152 
 44.76         140 
 44.78         123 
 44.8          127 
 44.82         121 
 44.84         115 
 44.86         87 
 44.88         101 
 44.9          100 
 44.92         87 
 44.94         89 
 44.96         79 
 44.98         75 
 45            62 
 45.02         79 
 45.04         72 
 45.06         59 
 45.08         62 
 45.1          55 
 45.12         56 
 45.14         60 
 45.16         64 
 45.18         59 
 45.2          56 
 45.22         67 
 45.24         46 
 45.26         42 
 45.28         49 
 45.3          56 
 45.32         53 
 45.34         41 
 45.36         58 
 45.38         43 
 45.4          45 
 45.42         44 
 45.44         51 
 45.46         51 
 45.48         45 
 45.5          56 
 45.52         43 
 45.54         30 
 45.56         39 
 45.58         40 
 45.6          37 
 45.62         39 
 45.64         46 
 45.66         39 
 45.68         33 
 45.7          35 
 45.72         34 
 45.74         29 
 45.76         43 
 45.78         49 
 45.8          34 
 45.82         36 
 45.84         37 
 45.86         33 
 45.88         38 
 45.9          36 
 45.92         40 
 45.94         32 
 45.96         37 
 45.98         41 
 46            45 
 46.02         35 
 46.04         26 
 46.06         32 
 46.08         25 
 46.1          31 
 46.12         25 
 46.14         38 
 46.16         31 
 46.18         31 
 46.2          27 
 46.22         25 
 46.24         29 
 46.26         34 
 46.28         31 
 46.3          31 
 46.32         20 
 46.34         36 
 46.36         33 
 46.38         32 
 46.4          29 
 46.42         26 
 46.44         31 
 46.46         23 
 46.48         35 
 46.5          24 
 46.52         28 
 46.54         28 
 46.56         31 
 46.58         20 
 46.6          30 
 46.62         32 
 46.64         28 
 46.66         27 
 46.68         27 
 46.7          29 
 46.72         35 
 46.74         22 
 46.76         39 
 46.78         35 
 46.8          23 
 46.82         31 
 46.84         34 
 46.86         17 
 46.88         28 
 46.9          28 
 46.92         26 
 46.94         30 
 46.96         24 
 46.98         21 
 47            43 
 47.02         30 
 47.04         26 
 47.06         32 
 47.08         31 
 47.1          30 
 47.12         31 
 47.14         22 
 47.16         32 
 47.18         31 
 47.2          29 
 47.22         35 
 47.24         33 
 47.26         29 
 47.28         33 
 47.3          28 
 47.32         30 
 47.34         31 
 47.36         22 
 47.38         26 
 47.4          32 
 47.42         23 
 47.44         26 
 47.46         35 
 47.48         32 
 47.5          29 
 47.52         26 
 47.54         37 
 47.56         29 
 47.58         24 
 47.6          35 
 47.62         40 
 47.64         36 
 47.66         34 
 47.68         27 
 47.7          28 
 47.72         33 
 47.74         53 
 47.76         23 
 47.78         29 
 47.8          40 
 47.82         30 
 47.84         27 
 47.86         37 
 47.88         31 
 47.9          26 
 47.92         34 
 47.94         33 
 47.96         29 
 47.98         38 
 48            41 
 48.02         45 
 48.04         44 
 48.06         50 
 48.08         41 
 48.1          50 
 48.12         52 
 48.14         82 
 48.16         72 
 48.18         60 
 48.2          70 
 48.22         72 
 48.24         89 
 48.26         86 
 48.28         97 
 48.3          124 
 48.32         153 
 48.34         189 
 48.36         237 
 48.38         307 
 48.4          355 
 48.42         501 
 48.44         544 
 48.46         698 
 48.48         881 
 48.5          896 
 48.52         966 
 48.54         948 
 48.56         829 
 48.58         790 
 48.6          670 
 48.62         659 
 48.64         569 
 48.66         504 
 48.68         426 
 48.7          334 
 48.72         239 
 48.74         223 
 48.76         136 
 48.78         104 
 48.8          112 
 48.82         83 
 48.84         76 
 48.86         75 
 48.88         52 
 48.9          73 
 48.92         67 
 48.94         46 
 48.96         45 
 48.98         47 
 49            33 
 49.02         36 
 49.04         46 
 49.06         51 
 49.08         39 
 49.1          35 
 49.12         38 
 49.14         38 
 49.16         36 
 49.18         26 
 49.2          41 
 49.22         37 
 49.24         39 
 49.26         31 
 49.28         23 
 49.3          39 
 49.32         30 
 49.34         29 
 49.36         29 
 49.38         35 
 49.4          28 
 49.42         23 
 49.44         31 
 49.46         25 
 49.48         25 
 49.5          27 
 49.52         26 
 49.54         27 
 49.56         31 
 49.58         37 
 49.6          15 
 49.62         22 
 49.64         33 
 49.66         27 
 49.68         25 
 49.7          33 
 49.72         26 
 49.74         25 
 49.76         27 
 49.78         30 
 49.8          25 
 49.82         28 
 49.84         29 
 49.86         36 
 49.88         30 
 49.9          27 
 49.92         30 
 49.94         29 
 49.96         25 
 49.98         18 
 50            24 
 50.02         39 
 50.04         28 
 50.06         32 
 50.08         37 
 50.1          21 
 50.12         30 
 50.14         31 
 50.16         34 
 50.18         23 
 50.2          30 
 50.22         37 
 50.24         30 
 50.26         31 
 50.28         25 
 50.3          40 
 50.32         37 
 50.34         38 
 50.36         41 
 50.38         28 
 50.4          32 
 50.42         28 
 50.44         40 
 50.46         28 
 50.48         30 
 50.5          30 
 50.52         22 
 50.54         23 
 50.56         33 
 50.58         21 
 50.6          23 
 50.62         27 
 50.64         33 
 50.66         29 
 50.68         30 
 50.7          27 
 50.72         34 
 50.74         27 
 50.76         31 
 50.78         23 
 50.8          29 
 50.82         24 
 50.84         35 
 50.86         22 
 50.88         35 
 50.9          29 
 50.92         35 
 50.94         19 
 50.96         25 
 50.98         25 
 51            21 
 51.02         33 
 51.04         25 
 51.06         20 
 51.08         24 
 51.1          25 
 51.12         25 
 51.14         27 
 51.16         17 
 51.18         21 
 51.2          32 
 51.22         25 
 51.24         23 
 51.26         30 
 51.28         20 
 51.3          20 
 51.32         31 
 51.34         37 
 51.36         22 
 51.38         17 
 51.4          30 
 51.42         24 
 51.44         16 
 51.46         27 
 51.48         15 
 51.5          31 
 51.52         36 
 51.54         29 
 51.56         21 
 51.58         25 
 51.6          19 
 51.62         30 
 51.64         23 
 51.66         28 
 51.68         27 
 51.7          27 
 51.72         16 
 51.74         28 
 51.76         15 
 51.78         25 
 51.8          16 
 51.82         27 
 51.84         22 
 51.86         18 
 51.88         27 
 51.9          26 
 51.92         24 
 51.94         32 
 51.96         18 
 51.98         23 
 52            32 
 52.02         19 
 52.04         26 
 52.06         21 
 52.08         16 
 52.1          19 
 52.12         19 
 52.14         19 
 52.16         22 
 52.18         29 
 52.2          23 
 52.22         33 
 52.24         30 
 52.26         33 
 52.28         15 
 52.3          23 
 52.32         30 
 52.34         22 
 52.36         18 
 52.38         29 
 52.4          22 
 52.42         25 
 52.44         28 
 52.46         35 
 52.48         23 
 52.5          28 
 52.52         27 
 52.54         17 
 52.56         17 
 52.58         19 
 52.6          27 
 52.62         18 
 52.64         23 
 52.66         24 
 52.68         20 
 52.7          24 
 52.72         20 
 52.74         19 
 52.76         22 
 52.78         24 
 52.8          23 
 52.82         29 
 52.84         22 
 52.86         31 
 52.88         28 
 52.9          19 
 52.92         26 
 52.94         30 
 52.96         30 
 52.98         24 
 53            23 
 53.02         22 
 53.04         28 
 53.06         27 
 53.08         25 
 53.1          18 
 53.12         26 
 53.14         19 
 53.16         24 
 53.18         30 
 53.2          21 
 53.22         32 
 53.24         18 
 53.26         16 
 53.28         13 
 53.3          21 
 53.32         25 
 53.34         23 
 53.36         32 
 53.38         28 
 53.4          23 
 53.42         16 
 53.44         24 
 53.46         15 
 53.48         23 
 53.5          23 
 53.52         24 
 53.54         24 
 53.56         25 
 53.58         20 
 53.6          30 
 53.62         26 
 53.64         31 
 53.66         28 
 53.68         27 
 53.7          23 
 53.72         25 
 53.74         22 
 53.76         19 
 53.78         22 
 53.8          27 
 53.82         21 
 53.84         29 
 53.86         26 
 53.88         26 
 53.9          27 
 53.92         23 
 53.94         21 
 53.96         26 
 53.98         18 
 54            27 
 54.02         33 
 54.04         25 
 54.06         21 
 54.08         25 
 54.1          18 
 54.12         23 
 54.14         21 
 54.16         19 
 54.18         24 
 54.2          15 
 54.22         32 
 54.24         19 
 54.26         20 
 54.28         26 
 54.3          37 
 54.32         23 
 54.34         21 
 54.36         19 
 54.38         26 
 54.4          26 
 54.42         16 
 54.44         25 
 54.46         21 
 54.48         16 
 54.5          20 
 54.52         19 
 54.54         28 
 54.56         34 
 54.58         21 
 54.6          26 
 54.62         32 
 54.64         26 
 54.66         26 
 54.68         20 
 54.7          18 
 54.72         38 
 54.74         18 
 54.76         18 
 54.78         27 
 54.8          23 
 54.82         20 
 54.84         19 
 54.86         27 
 54.88         26 
 54.9          27 
 54.92         23 
 54.94         24 
 54.96         30 
 54.98         31 
 55            19 
 55.02         24 
 55.04         24 
 55.06         31 
 55.08         44 
 55.1          25 
 55.12         19 
 55.14         37 
 55.16         32 
 55.18         36 
 55.2          29 
 55.22         22 
 55.24         26 
 55.26         33 
 55.28         32 
 55.3          20 
 55.32         20 
 55.34         26 
 55.36         19 
 55.38         20 
 55.4          29 
 55.42         27 
 55.44         23 
 55.46         30 
 55.48         29 
 55.5          27 
 55.52         25 
 55.54         24 
 55.56         24 
 55.58         31 
 55.6          18 
 55.62         17 
 55.64         25 
 55.66         28 
 55.68         37 
 55.7          19 
 55.72         21 
 55.74         21 
 55.76         30 
 55.78         20 
 55.8          32 
 55.82         19 
 55.84         28 
 55.86         22 
 55.88         23 
 55.9          27 
 55.92         24 
 55.94         36 
 55.96         34 
 55.98         25 
 56            22 
 56.02         26 
 56.04         27 
 56.06         21 
 56.08         23 
 56.1          21 
 56.12         31 
 56.14         36 
 56.16         25 
 56.18         20 
 56.2          22 
 56.22         28 
 56.24         24 
 56.26         27 
 56.28         23 
 56.3          23 
 56.32         25 
 56.34         29 
 56.36         34 
 56.38         33 
 56.4          29 
 56.42         30 
 56.44         22 
 56.46         33 
 56.48         29 
 56.5          21 
 56.52         26 
 56.54         24 
 56.56         22 
 56.58         13 
 56.6          22 
 56.62         18 
 56.64         37 
 56.66         23 
 56.68         29 
 56.7          15 
 56.72         28 
 56.74         33 
 56.76         28 
 56.78         33 
 56.8          29 
 56.82         29 
 56.84         22 
 56.86         30 
 56.88         16 
 56.9          28 
 56.92         31 
 56.94         27 
 56.96         23 
 56.98         33 
 57            19 
 57.02         31 
 57.04         24 
 57.06         33 
 57.08         20 
 57.1          26 
 57.12         22 
 57.14         39 
 57.16         22 
 57.18         39 
 57.2          35 
 57.22         24 
 57.24         36 
 57.26         35 
 57.28         21 
 57.3          34 
 57.32         37 
 57.34         35 
 57.36         34 
 57.38         22 
 57.4          34 
 57.42         40 
 57.44         35 
 57.46         24 
 57.48         42 
 57.5          32 
 57.52         35 
 57.54         37 
 57.56         25 
 57.58         37 
 57.6          36 
 57.62         35 
 57.64         40 
 57.66         39 
 57.68         45 
 57.7          30 
 57.72         34 
 57.74         44 
 57.76         46 
 57.78         35 
 57.8          33 
 57.82         36 
 57.84         46 
 57.86         41 
 57.88         50 
 57.9          43 
 57.92         58 
 57.94         46 
 57.96         33 
 57.98         35 
 58            57 
 58.02         44 
 58.04         47 
 58.06         47 
 58.08         56 
 58.1          55 
 58.12         64 
 58.14         47 
 58.16         66 
 58.18         63 
 58.2          64 
 58.22         73 
 58.24         108 
 58.26         90 
 58.28         89 
 58.3          109 
 58.32         126 
 58.34         138 
 58.36         121 
 58.38         172 
 58.4          167 
 58.42         185 
 58.44         231 
 58.46         289 
 58.48         354 
 58.5          431 
 58.52         513 
 58.54         637 
 58.56         909 
 58.58         1049 
 58.6          1301 
 58.62         1509 
 58.64         1650 
 58.66         1660 
 58.68         1606 
 58.7          1517 
 58.72         1340 
 58.74         1241 
 58.76         1098 
 58.78         1099 
 58.8          1075 
 58.82         931 
 58.84         859 
 58.86         730 
 58.88         527 
 58.9          410 
 58.92         344 
 58.94         248 
 58.96         230 
 58.98         196 
 59            143 
 59.02         139 
 59.04         108 
 59.06         99 
 59.08         102 
 59.1          101 
 59.12         63 
 59.14         73 
 59.16         72 
 59.18         55 
 59.2          51 
 59.22         52 
 59.24         55 
 59.26         49 
 59.28         45 
 59.3          39 
 59.32         37 
 59.34         58 
 59.36         45 
 59.38         36 
 59.4          43 
 59.42         36 
 59.44         34 
 59.46         48 
 59.48         43 
 59.5          46 
 59.52         30 
 59.54         41 
 59.56         41 
 59.58         39 
 59.6          53 
 59.62         24 
 59.64         33 
 59.66         29 
 59.68         36 
 59.7          38 
 59.72         48 
 59.74         36 
 59.76         38 
 59.78         34 
 59.8          23 
 59.82         25 
 59.84         32 
 59.86         42 
 59.88         33 
 59.9          34 
 59.92         31 
 59.94         38 
 59.96         37 
 59.98         25 
 60            24 
 60.02         38 
 60.04         39 
 60.06         26 
 60.08         31 
 60.1          33 
 60.12         29 
 60.14         23 
 60.16         27 
 60.18         26 
 60.2          29 
 60.22         19 
 60.24         16 
 60.26         32 
 60.28         29 
 60.3          30 
 60.32         29 
 60.34         27 
 60.36         20 
 60.38         38 
 60.4          26 
 60.42         27 
 60.44         21 
 60.46         24 
 60.48         30 
 60.5          24 
 60.52         32 
 60.54         23 
 60.56         23 
 60.58         26 
 60.6          27 
 60.62         23 
 60.64         27 
 60.66         27 
 60.68         22 
 60.7          26 
 60.72         28 
 60.74         24 
 60.76         23 
 60.78         22 
 60.8          27 
 60.82         30 
 60.84         32 
 60.86         30 
 60.88         23 
 60.9          18 
 60.92         33 
 60.94         27 
 60.96         22 
 60.98         30 
 61            27 
 61.02         22 
 61.04         30 
 61.06         27 
 61.08         22 
 61.1          23 
 61.12         24 
 61.14         19 
 61.16         25 
 61.18         17 
 61.2          27 
 61.22         18 
 61.24         28 
 61.26         18 
 61.28         31 
 61.3          30 
 61.32         24 
 61.34         28 
 61.36         29 
 61.38         24 
 61.4          16 
 61.42         27 
 61.44         27 
 61.46         26 
 61.48         18 
 61.5          20 
 61.52         32 
 61.54         14 
 61.56         30 
 61.58         27 
 61.6          29 
 61.62         19 
 61.64         22 
 61.66         26 
 61.68         17 
 61.7          16 
 61.72         33 
 61.74         23 
 61.76         19 
 61.78         32 
 61.8          22 
 61.82         30 
 61.84         29 
 61.86         20 
 61.88         33 
 61.9          34 
 61.92         27 
 61.94         30 
 61.96         27 
 61.98         25 
 62            31 
 62.02         23 
 62.04         39 
 62.06         27 
 62.08         23 
 62.1          24 
 62.12         24 
 62.14         26 
 62.16         22 
 62.18         28 
 62.2          32 
 62.22         33 
 62.24         19 
 62.26         40 
 62.28         29 
 62.3          18 
 62.32         29 
 62.34         24 
 62.36         33 
 62.38         27 
 62.4          28 
 62.42         13 
 62.44         32 
 62.46         27 
 62.48         31 
 62.5          30 
 62.52         24 
 62.54         27 
 62.56         31 
 62.58         25 
 62.6          29 
 62.62         21 
 62.64         33 
 62.66         26 
 62.68         34 
 62.7          33 
 62.72         34 
 62.74         32 
 62.76         30 
 62.78         34 
 62.8          22 
 62.82         33 
 62.84         28 
 62.86         29 
 62.88         27 
 62.9          32 
 62.92         28 
 62.94         28 
 62.96         35 
 62.98         39 
 63            38 
 63.02         42 
 63.04         46 
 63.06         43 
 63.08         41 
 63.1          45 
 63.12         48 
 63.14         78 
 63.16         55 
 63.18         69 
 63.2          76 
 63.22         92 
 63.24         98 
 63.26         56 
 63.28         92 
 63.3          80 
 63.32         80 
 63.34         83 
 63.36         92 
 63.38         101 
 63.4          69 
 63.42         74 
 63.44         72 
 63.46         77 
 63.48         74 
 63.5          63 
 63.52         79 
 63.54         57 
 63.56         67 
 63.58         55 
 63.6          54 
 63.62         51 
 63.64         46 
 63.66         45 
 63.68         47 
 63.7          50 
 63.72         53 
 63.74         52 
 63.76         46 
 63.78         49 
 63.8          59 
 63.82         56 
 63.84         55 
 63.86         68 
 63.88         67 
 63.9          75 
 63.92         79 
 63.94         70 
 63.96         85 
 63.98         81 
 64            104 
 64.02         127 
 64.04         112 
 64.06         159 
 64.08         153 
 64.1          176 
 64.12         190 
 64.14         197 
 64.16         229 
 64.18         236 
 64.2          288 
 64.22         322 
 64.24         345 
 64.26         464 
 64.28         518 
 64.3          748 
 64.32         867 
 64.34         1136 
 64.36         1402 
 64.38         1725 
 64.4          2075 
 64.42         2377 
 64.44         2598 
 64.46         2671 
 64.48         2484 
 64.5          2259 
 64.52         1969 
 64.54         1823 
 64.56         1736 
 64.58         1650 
 64.6          1626 
 64.62         1510 
 64.64         1509 
 64.66         1287 
 64.68         1105 
 64.7          882 
 64.72         666 
 64.74         558 
 64.76         386 
 64.78         322 
 64.8          290 
 64.82         223 
 64.84         182 
 64.86         147 
 64.88         145 
 64.9          121 
 64.92         126 
 64.94         94 
 64.96         91 
 64.98         88 
 65            94 
 65.02         91 
 65.04         78 
 65.06         61 
 65.08         65 
 65.1          74 
 65.12         61 
 65.14         62 
 65.16         64 
 65.18         47 
 65.2          69 
 65.22         51 
 65.24         50 
 65.26         47 
 65.28         43 
 65.3          43 
 65.32         53 
 65.34         37 
 65.36         40 
 65.38         37 
 65.4          51 
 65.42         40 
 65.44         42 
 65.46         43 
 65.48         35 
 65.5          37 
 65.52         37 
 65.54         35 
 65.56         43 
 65.58         42 
 65.6          31 
 65.62         40 
 65.64         42 
 65.66         40 
 65.68         35 
 65.7          33 
 65.72         31 
 65.74         24 
 65.76         28 
 65.78         40 
 65.8          27 
 65.82         44 
 65.84         30 
 65.86         46 
 65.88         28 
 65.9          29 
 65.92         29 
 65.94         35 
 65.96         26 
 65.98         39 
 66            35 
 66.02         18 
 66.04         37 
 66.06         38 
 66.08         26 
 66.1          37 
 66.12         37 
 66.14         33 
 66.16         35 
 66.18         29 
 66.2          29 
 66.22         30 
 66.24         32 
 66.26         33 
 66.28         23 
 66.3          28 
 66.32         28 
 66.34         30 
 66.36         29 
 66.38         38 
 66.4          45 
 66.42         24 
 66.44         25 
 66.46         26 
 66.48         29 
 66.5          35 
 66.52         27 
 66.54         37 
 66.56         35 
 66.58         36 
 66.6          28 
 66.62         30 
 66.64         38 
 66.66         23 
 66.68         36 
 66.7          27 
 66.72         31 
 66.74         32 
 66.76         37 
 66.78         31 
 66.8          33 
 66.82         30 
 66.84         24 
 66.86         31 
 66.88         33 
 66.9          33 
 66.92         42 
 66.94         34 
 66.96         36 
 66.98         44 
 67            27 
 67.02         30 
 67.04         39 
 67.06         33 
 67.08         40 
 67.1          35 
 67.12         39 
 67.14         44 
 67.16         27 
 67.18         37 
 67.2          42 
 67.22         39 
 67.24         42 
 67.26         56 
 67.28         39 
 67.3          64 
 67.32         41 
 67.34         52 
 67.36         65 
 67.38         68 
 67.4          64 
 67.42         86 
 67.44         93 
 67.46         105 
 67.48         106 
 67.5          108 
 67.52         143 
 67.54         118 
 67.56         151 
 67.58         162 
 67.6          212 
 67.62         248 
 67.64         304 
 67.66         378 
 67.68         493 
 67.7          567 
 67.72         708 
 67.74         901 
 67.76         971 
 67.78         1112 
 67.8          1109 
 67.82         1064 
 67.84         918 
 67.86         804 
 67.88         758 
 67.9          712 
 67.92         649 
 67.94         623 
 67.96         585 
 67.98         629 
 68            554 
 68.02         499 
 68.04         430 
 68.06         358 
 68.08         258 
 68.1          206 
 68.12         168 
 68.14         149 
 68.16         114 
 68.18         110 
 68.2          83 
 68.22         88 
 68.24         85 
 68.26         75 
 68.28         64 
 68.3          58 
 68.32         60 
 68.34         48 
 68.36         37 
 68.38         41 
 68.4          44 
 68.42         38 
 68.44         43 
 68.46         42 
 68.48         41 
 68.5          43 
 68.52         33 
 68.54         45 
 68.56         29 
 68.58         38 
 68.6          41 
 68.62         25 
 68.64         39 
 68.66         33 
 68.68         32 
 68.7          37 
 68.72         33 
 68.74         45 
 68.76         27 
 68.78         38 
 68.8          29 
 68.82         39 
 68.84         39 
 68.86         40 
 68.88         31 
 68.9          32 
 68.92         35 
 68.94         23 
 68.96         31 
 68.98         32 
 69            28 
 69.02         20 
 69.04         25 
 69.06         31 
 69.08         36 
 69.1          27 
 69.12         25 
 69.14         29 
 69.16         32 
 69.18         30 
 69.2          23 
 69.22         29 
 69.24         23 
 69.26         23 
 69.28         26 
 69.3          30 
 69.32         20 
 69.34         31 
 69.36         19 
 69.38         29 
 69.4          21 
 69.42         19 
 69.44         27 
 69.46         25 
 69.48         18 
 69.5          21 
 69.52         19 
 69.54         28 
 69.56         30 
 69.58         20 
 69.6          25 
 69.62         14 
 69.64         20 
 69.66         21 
 69.68         18 
 69.7          21 
 69.72         21 
 69.74         17 
 69.76         20 
 69.78         19 
 69.8          15 
 69.82         21 
 69.84         21 
 69.86         27 
 69.88         25 
 69.9          14 
 69.92         15 
 69.94         21 
 69.96         18 
 69.98         21 
 70            28 
 70.02         20 
 70.04         17 
 70.06         15 
 70.08         22 
 70.1          24 
 70.12         18 
 70.14         17 
 70.16         21 
 70.18         16 
 70.2          25 
 70.22         23 
 70.24         28 
 70.26         10 
 70.28         27 
 70.3          20 
 70.32         34 
 70.34         25 
 70.36         20 
 70.38         22 
 70.4          23 
 70.42         24 
 70.44         15 
 70.46         17 
 70.48         15 
 70.5          18 
 70.52         35 
 70.54         28 
 70.56         20 
 70.58         27 
 70.6          19 
 70.62         15 
 70.64         21 
 70.66         26 
 70.68         22 
 70.7          24 
 70.72         22 
 70.74         21 
 70.76         16 
 70.78         21 
 70.8          17 
 70.82         21 
 70.84         19 
 70.86         20 
 70.88         18 
 70.9          23 
 70.92         13 
 70.94         22 
 70.96         19 
 70.98         19 
 71            17 
 71.02         19 
 71.04         24 
 71.06         20 
 71.08         22 
 71.1          21 
 71.12         20 
 71.14         25 
 71.16         15 
 71.18         15 
 71.2          18 
 71.22         25 
 71.24         21 
 71.26         21 
 71.28         19 
 71.3          21 
 71.32         24 
 71.34         18 
 71.36         19 
 71.38         26 
 71.4          13 
 71.42         22 
 71.44         22 
 71.46         26 
 71.48         26 
 71.5          15 
 71.52         26 
 71.54         21 
 71.56         15 
 71.58         17 
 71.6          12 
 71.62         25 
 71.64         23 
 71.66         21 
 71.68         22 
 71.7          17 
 71.72         21 
 71.74         9 
 71.76         18 
 71.78         28 
 71.8          23 
 71.82         18 
 71.84         25 
 71.86         12 
 71.88         24 
 71.9          24 
 71.92         21 
 71.94         11 
 71.96         30 
 71.98         25 
 72            27 
 72.02         27 
 72.04         20 
 72.06         21 
 72.08         28 
 72.1          15 
 72.12         29 
 72.14         16 
 72.16         27 
 72.18         13 
 72.2          15 
 72.22         16 
 72.24         18 
 72.26         19 
 72.28         16 
 72.3          19 
 72.32         29 
 72.34         13 
 72.36         18 
 72.38         17 
 72.4          20 
 72.42         16 
 72.44         17 
 72.46         10 
 72.48         20 
 72.5          23 
 72.52         13 
 72.54         18 
 72.56         15 
 72.58         24 
 72.6          22 
 72.62         24 
 72.64         27 
 72.66         11 
 72.68         18 
 72.7          19 
 72.72         11 
 72.74         18 
 72.76         20 
 72.78         18 
 72.8          20 
 72.82         14 
 72.84         14 
 72.86         27 
 72.88         30 
 72.9          24 
 72.92         8 
 72.94         16 
 72.96         20 
 72.98         19 
 73            10 
 73.02         23 
 73.04         12 
 73.06         14 
 73.08         29 
 73.1          5 
 73.12         16 
 73.14         22 
 73.16         14 
 73.18         26 
 73.2          23 
 73.22         21 
 73.24         16 
 73.26         19 
 73.28         23 
 73.3          15 
 73.32         22 
 73.34         20 
 73.36         22 
 73.38         20 
 73.4          18 
 73.42         27 
 73.44         15 
 73.46         16 
 73.48         21 
 73.5          22 
 73.52         21 
 73.54         27 
 73.56         24 
 73.58         23 
 73.6          24 
 73.62         20 
 73.64         22 
 73.66         14 
 73.68         18 
 73.7          23 
 73.72         12 
 73.74         12 
 73.76         28 
 73.78         13 
 73.8          18 
 73.82         23 
 73.84         12 
 73.86         17 
 73.88         18 
 73.9          29 
 73.92         28 
 73.93999      18 
 73.96         18 
 73.98         18 
 74            17 
 74.02         13 
 74.04         22 
 74.06         20 
 74.08         22 
 74.1          16 
 74.12         23 
 74.14         15 
 74.16         18 
 74.18         16 
 74.2          18 
 74.22         21 
 74.24         21 
 74.26         25 
 74.28         20 
 74.3          16 
 74.32         18 
 74.34         26 
 74.36         19 
 74.38         16 
 74.4          27 
 74.42         21 
 74.43999      24 
 74.46         17 
 74.48         21 
 74.5          24 
 74.52         20 
 74.54         19 
 74.56         17 
 74.58         18 
 74.6          18 
 74.62         28 
 74.64         23 
 74.66         25 
 74.68         16 
 74.7          25 
 74.72         20 
 74.74         12 
 74.76         13 
 74.78         26 
 74.8          18 
 74.82         27 
 74.84         25 
 74.86         22 
 74.88         23 
 74.9          31 
 74.92         21 
 74.93999      28 
 74.96         26 
 74.98         16 
 75            15 
