LLTO 800°C Ofen  Original Data
 3151 
 12            444 
 12.02         447 
 12.04         433 
 12.06         399 
 12.08         421 
 12.1          440 
 12.12         418 
 12.14         440 
 12.16         425 
 12.18         425 
 12.2          410 
 12.22         395 
 12.24         410 
 12.26         389 
 12.28         421 
 12.3          427 
 12.32         448 
 12.34         423 
 12.36         390 
 12.38         371 
 12.4          433 
 12.42         398 
 12.44         400 
 12.46         422 
 12.48         413 
 12.5          433 
 12.52         353 
 12.54         394 
 12.56         375 
 12.58         394 
 12.6          386 
 12.62         386 
 12.64         368 
 12.66         356 
 12.68         393 
 12.7          394 
 12.72         363 
 12.74         375 
 12.76         364 
 12.78         350 
 12.8          347 
 12.82         371 
 12.84         344 
 12.86         373 
 12.88         374 
 12.9          323 
 12.92         365 
 12.94         340 
 12.96         335 
 12.98         336 
 13            301 
 13.02         320 
 13.04         342 
 13.06         324 
 13.08         349 
 13.1          353 
 13.12         347 
 13.14         325 
 13.16         322 
 13.18         343 
 13.2          303 
 13.22         323 
 13.24         328 
 13.26         329 
 13.28         323 
 13.3          310 
 13.32         269 
 13.34         309 
 13.36         334 
 13.38         329 
 13.4          308 
 13.42         300 
 13.44         291 
 13.46         291 
 13.48         281 
 13.5          278 
 13.52         283 
 13.54         302 
 13.56         325 
 13.58         292 
 13.6          298 
 13.62         299 
 13.64         319 
 13.66         309 
 13.68         290 
 13.7          249 
 13.72         272 
 13.74         276 
 13.76         266 
 13.78         268 
 13.8          255 
 13.82         243 
 13.84         269 
 13.86         298 
 13.88         279 
 13.9          276 
 13.92         264 
 13.94         276 
 13.96         241 
 13.98         241 
 14            259 
 14.02         221 
 14.04         265 
 14.06         253 
 14.08         253 
 14.1          224 
 14.12         254 
 14.14         246 
 14.16         216 
 14.18         239 
 14.2          245 
 14.22         276 
 14.24         239 
 14.26         216 
 14.28         250 
 14.3          227 
 14.32         227 
 14.34         242 
 14.36         244 
 14.38         248 
 14.4          223 
 14.42         233 
 14.44         228 
 14.46         213 
 14.48         219 
 14.5          213 
 14.52         224 
 14.54         227 
 14.56         239 
 14.58         241 
 14.6          227 
 14.62         214 
 14.64         237 
 14.66         203 
 14.68         204 
 14.7          186 
 14.72         202 
 14.74         247 
 14.76         211 
 14.78         216 
 14.8          210 
 14.82         213 
 14.84         231 
 14.86         189 
 14.88         209 
 14.9          204 
 14.92         212 
 14.94         197 
 14.96         195 
 14.98         190 
 15            179 
 15.02         197 
 15.04         196 
 15.06         194 
 15.08         196 
 15.1          203 
 15.12         213 
 15.14         192 
 15.16         189 
 15.18         209 
 15.2          177 
 15.22         195 
 15.24         185 
 15.26         191 
 15.28         210 
 15.3          166 
 15.32         178 
 15.34         179 
 15.36         197 
 15.38         216 
 15.4          170 
 15.42         175 
 15.44         169 
 15.46         174 
 15.48         204 
 15.5          192 
 15.52         177 
 15.54         194 
 15.56         183 
 15.58         180 
 15.6          203 
 15.62         178 
 15.64         147 
 15.66         186 
 15.68         172 
 15.7          182 
 15.72         151 
 15.74         165 
 15.76         183 
 15.78         159 
 15.8          180 
 15.82         163 
 15.84         180 
 15.86         168 
 15.88         183 
 15.9          178 
 15.92         177 
 15.94         187 
 15.96         153 
 15.98         165 
 16            181 
 16.02         143 
 16.04         189 
 16.06         169 
 16.08         173 
 16.1          170 
 16.12         158 
 16.14         190 
 16.16         163 
 16.18         159 
 16.2          148 
 16.22         159 
 16.24         163 
 16.26         172 
 16.28         161 
 16.3          154 
 16.32         159 
 16.34         170 
 16.36         152 
 16.38         159 
 16.4          153 
 16.42         146 
 16.44         162 
 16.46         158 
 16.48         159 
 16.5          146 
 16.52         147 
 16.54         171 
 16.56         163 
 16.58         163 
 16.6          150 
 16.62         153 
 16.64         150 
 16.66         140 
 16.68         149 
 16.7          137 
 16.72         157 
 16.74         164 
 16.76         174 
 16.78         143 
 16.8          137 
 16.82         144 
 16.84         156 
 16.86         142 
 16.88         166 
 16.9          156 
 16.92         152 
 16.94         140 
 16.96         151 
 16.98         165 
 17            172 
 17.02         146 
 17.04         166 
 17.06         139 
 17.08         159 
 17.1          153 
 17.12         156 
 17.14         146 
 17.16         156 
 17.18         128 
 17.2          135 
 17.22         147 
 17.24         143 
 17.26         144 
 17.28         149 
 17.3          132 
 17.32         150 
 17.34         133 
 17.36         123 
 17.38         139 
 17.4          116 
 17.42         135 
 17.44         132 
 17.46         142 
 17.48         151 
 17.5          135 
 17.52         133 
 17.54         153 
 17.56         160 
 17.58         142 
 17.6          125 
 17.62         134 
 17.64         128 
 17.66         130 
 17.68         160 
 17.7          137 
 17.72         129 
 17.74         132 
 17.76         134 
 17.78         129 
 17.8          113 
 17.82         132 
 17.84         126 
 17.86         144 
 17.88         127 
 17.9          132 
 17.92         127 
 17.94         125 
 17.96         117 
 17.98         130 
 18            113 
 18.02         136 
 18.04         116 
 18.06         136 
 18.08         124 
 18.1          128 
 18.12         137 
 18.14         118 
 18.16         116 
 18.18         149 
 18.2          138 
 18.22         142 
 18.24         130 
 18.26         136 
 18.28         145 
 18.3          161 
 18.32         133 
 18.34         148 
 18.36         127 
 18.38         144 
 18.4          132 
 18.42         119 
 18.44         129 
 18.46         128 
 18.48         136 
 18.5          140 
 18.52         114 
 18.54         123 
 18.56         127 
 18.58         112 
 18.6          135 
 18.62         129 
 18.64         111 
 18.66         112 
 18.68         117 
 18.7          135 
 18.72         132 
 18.74         118 
 18.76         112 
 18.78         122 
 18.8          123 
 18.82         118 
 18.84         105 
 18.86         107 
 18.88         116 
 18.9          115 
 18.92         110 
 18.94         113 
 18.96         119 
 18.98         101 
 19            112 
 19.02         98 
 19.04         110 
 19.06         117 
 19.08         104 
 19.1          128 
 19.12         101 
 19.14         129 
 19.16         114 
 19.18         125 
 19.2          99 
 19.22         117 
 19.24         120 
 19.26         114 
 19.28         130 
 19.3          104 
 19.32         114 
 19.34         123 
 19.36         110 
 19.38         115 
 19.4          113 
 19.42         97 
 19.44         132 
 19.46         107 
 19.48         118 
 19.5          122 
 19.52         128 
 19.54         80 
 19.56         111 
 19.58         94 
 19.6          102 
 19.62         111 
 19.64         96 
 19.66         104 
 19.68         103 
 19.7          120 
 19.72         105 
 19.74         107 
 19.76         120 
 19.78         105 
 19.8          112 
 19.82         85 
 19.84         108 
 19.86         103 
 19.88         107 
 19.9          113 
 19.92         108 
 19.94         88 
 19.96         113 
 19.98         107 
 20            104 
 20.02         111 
 20.04         103 
 20.06         117 
 20.08         92 
 20.1          110 
 20.12         108 
 20.14         115 
 20.16         109 
 20.18         108 
 20.2          101 
 20.22         115 
 20.24         118 
 20.26         95 
 20.28         104 
 20.3          125 
 20.32         104 
 20.34         97 
 20.36         102 
 20.38         90 
 20.4          128 
 20.42         103 
 20.44         96 
 20.46         85 
 20.48         96 
 20.5          105 
 20.52         113 
 20.54         116 
 20.56         90 
 20.58         97 
 20.6          99 
 20.62         97 
 20.64         105 
 20.66         101 
 20.68         102 
 20.7          93 
 20.72         101 
 20.74         109 
 20.76         90 
 20.78         105 
 20.8          97 
 20.82         97 
 20.84         109 
 20.86         109 
 20.88         108 
 20.9          100 
 20.92         121 
 20.94         97 
 20.96         119 
 20.98         112 
 21            121 
 21.02         108 
 21.04         113 
 21.06         137 
 21.08         126 
 21.1          107 
 21.12         105 
 21.14         90 
 21.16         77 
 21.18         98 
 21.2          111 
 21.22         107 
 21.24         108 
 21.26         106 
 21.28         95 
 21.3          98 
 21.32         100 
 21.34         81 
 21.36         105 
 21.38         86 
 21.4          102 
 21.42         73 
 21.44         104 
 21.46         101 
 21.48         83 
 21.5          105 
 21.52         86 
 21.54         111 
 21.56         91 
 21.58         95 
 21.6          97 
 21.62         90 
 21.64         86 
 21.66         109 
 21.68         85 
 21.7          74 
 21.72         97 
 21.74         100 
 21.76         85 
 21.78         92 
 21.8          106 
 21.82         85 
 21.84         88 
 21.86         88 
 21.88         92 
 21.9          83 
 21.92         90 
 21.94         80 
 21.96         83 
 21.98         107 
 22            97 
 22.02         98 
 22.04         93 
 22.06         96 
 22.08         91 
 22.1          71 
 22.12         93 
 22.14         78 
 22.16         94 
 22.18         90 
 22.2          90 
 22.22         96 
 22.24         103 
 22.26         88 
 22.28         99 
 22.3          102 
 22.32         96 
 22.34         80 
 22.36         88 
 22.38         81 
 22.4          92 
 22.42         105 
 22.44         95 
 22.46         89 
 22.48         88 
 22.5          94 
 22.52         75 
 22.54         82 
 22.56         95 
 22.58         86 
 22.6          114 
 22.62         101 
 22.64         105 
 22.66         105 
 22.68         97 
 22.7          124 
 22.72         136 
 22.74         110 
 22.76         139 
 22.78         135 
 22.8          132 
 22.82         126 
 22.84         114 
 22.86         144 
 22.88         112 
 22.9          136 
 22.92         118 
 22.94         138 
 22.96         130 
 22.98         120 
 23            108 
 23.02         137 
 23.04         110 
 23.06         90 
 23.08         102 
 23.1          116 
 23.12         98 
 23.14         90 
 23.16         97 
 23.18         102 
 23.2          107 
 23.22         104 
 23.24         90 
 23.26         91 
 23.28         94 
 23.3          105 
 23.32         95 
 23.34         86 
 23.36         110 
 23.38         80 
 23.4          98 
 23.42         85 
 23.44         91 
 23.46         92 
 23.48         84 
 23.5          87 
 23.52         78 
 23.54         93 
 23.56         107 
 23.58         80 
 23.6          70 
 23.62         81 
 23.64         77 
 23.66         71 
 23.68         81 
 23.7          64 
 23.72         77 
 23.74         81 
 23.76         65 
 23.78         86 
 23.8          87 
 23.82         84 
 23.84         94 
 23.86         72 
 23.88         93 
 23.9          73 
 23.92         89 
 23.94         95 
 23.96         78 
 23.98         85 
 24            84 
 24.02         92 
 24.04         86 
 24.06         89 
 24.08         91 
 24.1          82 
 24.12         98 
 24.14         85 
 24.16         85 
 24.18         87 
 24.2          83 
 24.22         68 
 24.24         81 
 24.26         91 
 24.28         83 
 24.3          105 
 24.32         94 
 24.34         81 
 24.36         102 
 24.38         91 
 24.4          69 
 24.42         84 
 24.44         108 
 24.46         77 
 24.48         80 
 24.5          84 
 24.52         66 
 24.54         87 
 24.56         92 
 24.58         85 
 24.6          81 
 24.62         98 
 24.64         84 
 24.66         90 
 24.68         77 
 24.7          89 
 24.72         77 
 24.74         66 
 24.76         87 
 24.78         109 
 24.8          81 
 24.82         64 
 24.84         83 
 24.86         72 
 24.88         82 
 24.9          91 
 24.92         97 
 24.94         102 
 24.96         93 
 24.98         95 
 25            77 
 25.02         86 
 25.04         91 
 25.06         91 
 25.08         114 
 25.1          84 
 25.12         103 
 25.14         112 
 25.16         95 
 25.18         111 
 25.2          131 
 25.22         124 
 25.24         118 
 25.26         130 
 25.28         151 
 25.3          135 
 25.32         110 
 25.34         133 
 25.36         145 
 25.38         141 
 25.4          173 
 25.42         168 
 25.44         189 
 25.46         216 
 25.48         313 
 25.5          346 
 25.52         416 
 25.54         497 
 25.56         533 
 25.58         620 
 25.6          707 
 25.62         613 
 25.64         588 
 25.66         517 
 25.68         450 
 25.7          371 
 25.72         311 
 25.74         230 
 25.76         188 
 25.78         181 
 25.8          148 
 25.82         150 
 25.84         128 
 25.86         122 
 25.88         105 
 25.9          90 
 25.92         117 
 25.94         118 
 25.96         106 
 25.98         81 
 26            105 
 26.02         104 
 26.04         99 
 26.06         94 
 26.08         98 
 26.1          100 
 26.12         93 
 26.14         84 
 26.16         89 
 26.18         91 
 26.2          87 
 26.22         93 
 26.24         84 
 26.26         87 
 26.28         77 
 26.3          95 
 26.32         71 
 26.34         80 
 26.36         61 
 26.38         85 
 26.4          91 
 26.42         98 
 26.44         87 
 26.46         75 
 26.48         67 
 26.5          89 
 26.52         74 
 26.54         71 
 26.56         105 
 26.58         75 
 26.6          94 
 26.62         68 
 26.64         76 
 26.66         75 
 26.68         76 
 26.7          81 
 26.72         86 
 26.74         81 
 26.76         81 
 26.78         70 
 26.8          84 
 26.82         84 
 26.84         75 
 26.86         81 
 26.88         98 
 26.9          73 
 26.92         62 
 26.94         87 
 26.96         76 
 26.98         89 
 27            78 
 27.02         78 
 27.04         79 
 27.06         86 
 27.08         87 
 27.1          90 
 27.12         81 
 27.14         69 
 27.16         67 
 27.18         77 
 27.2          69 
 27.22         83 
 27.24         76 
 27.26         65 
 27.28         69 
 27.3          101 
 27.32         79 
 27.34         81 
 27.36         90 
 27.38         76 
 27.4          78 
 27.42         72 
 27.44         81 
 27.46         77 
 27.48         97 
 27.5          69 
 27.52         90 
 27.54         93 
 27.56         104 
 27.58         100 
 27.6          102 
 27.62         90 
 27.64         111 
 27.66         96 
 27.68         99 
 27.7          95 
 27.72         93 
 27.74         81 
 27.76         79 
 27.78         104 
 27.8          86 
 27.82         89 
 27.84         88 
 27.86         79 
 27.88         89 
 27.9          78 
 27.92         95 
 27.94         111 
 27.96         88 
 27.98         84 
 28            78 
 28.02         91 
 28.04         103 
 28.06         129 
 28.08         110 
 28.1          81 
 28.12         101 
 28.14         75 
 28.16         103 
 28.18         101 
 28.2          68 
 28.22         88 
 28.24         80 
 28.26         96 
 28.28         78 
 28.3          84 
 28.32         81 
 28.34         86 
 28.36         92 
 28.38         86 
 28.4          83 
 28.42         80 
 28.44         97 
 28.46         90 
 28.48         82 
 28.5          125 
 28.52         96 
 28.54         94 
 28.56         111 
 28.58         117 
 28.6          110 
 28.62         108 
 28.64         116 
 28.66         88 
 28.68         123 
 28.7          128 
 28.72         102 
 28.74         93 
 28.76         105 
 28.78         118 
 28.8          96 
 28.82         92 
 28.84         98 
 28.86         76 
 28.88         99 
 28.9          94 
 28.92         95 
 28.94         88 
 28.96         78 
 28.98         85 
 29            88 
 29.02         80 
 29.04         91 
 29.06         95 
 29.08         69 
 29.1          88 
 29.12         77 
 29.14         67 
 29.16         93 
 29.18         86 
 29.2          89 
 29.22         76 
 29.24         87 
 29.26         90 
 29.28         73 
 29.3          97 
 29.32         88 
 29.34         90 
 29.36         73 
 29.38         74 
 29.4          88 
 29.42         76 
 29.44         94 
 29.46         76 
 29.48         84 
 29.5          87 
 29.52         76 
 29.54         78 
 29.56         73 
 29.58         82 
 29.6          94 
 29.62         86 
 29.64         87 
 29.66         115 
 29.68         109 
 29.7          120 
 29.72         121 
 29.74         153 
 29.76         130 
 29.78         134 
 29.8          139 
 29.82         102 
 29.84         107 
 29.86         103 
 29.88         100 
 29.9          87 
 29.92         75 
 29.94         73 
 29.96         95 
 29.98         81 
 30            84 
 30.02         66 
 30.04         72 
 30.06         77 
 30.08         56 
 30.1          69 
 30.12         78 
 30.14         61 
 30.16         64 
 30.18         79 
 30.2          69 
 30.22         75 
 30.24         64 
 30.26         70 
 30.28         71 
 30.3          73 
 30.32         58 
 30.34         59 
 30.36         64 
 30.38         66 
 30.4          69 
 30.42         69 
 30.44         56 
 30.46         57 
 30.48         77 
 30.5          57 
 30.52         68 
 30.54         64 
 30.56         58 
 30.58         68 
 30.6          62 
 30.62         65 
 30.64         44 
 30.66         48 
 30.68         74 
 30.7          57 
 30.72         55 
 30.74         55 
 30.76         66 
 30.78         62 
 30.8          61 
 30.82         47 
 30.84         61 
 30.86         70 
 30.88         54 
 30.9          63 
 30.92         62 
 30.94         60 
 30.96         62 
 30.98         66 
 31            37 
 31.02         46 
 31.04         49 
 31.06         61 
 31.08         57 
 31.1          60 
 31.12         62 
 31.14         74 
 31.16         67 
 31.18         59 
 31.2          56 
 31.22         47 
 31.24         68 
 31.26         53 
 31.28         73 
 31.3          49 
 31.32         61 
 31.34         60 
 31.36         50 
 31.38         53 
 31.4          57 
 31.42         67 
 31.44         68 
 31.46         63 
 31.48         52 
 31.5          46 
 31.52         63 
 31.54         51 
 31.56         44 
 31.58         63 
 31.6          66 
 31.62         66 
 31.64         60 
 31.66         65 
 31.68         62 
 31.7          64 
 31.72         72 
 31.74         74 
 31.76         57 
 31.78         68 
 31.8          52 
 31.82         76 
 31.84         64 
 31.86         89 
 31.88         68 
 31.9          71 
 31.92         79 
 31.94         90 
 31.96         85 
 31.98         94 
 32            108 
 32.02         108 
 32.04         121 
 32.06         113 
 32.08         110 
 32.1          129 
 32.12         145 
 32.14         144 
 32.16         147 
 32.18         149 
 32.2          199 
 32.22         201 
 32.24         188 
 32.26         229 
 32.28         236 
 32.3          305 
 32.32         331 
 32.34         443 
 32.36         541 
 32.38         708 
 32.4          861 
 32.42         1114 
 32.44         1411 
 32.46         1703 
 32.48         2088 
 32.5          2258 
 32.52         2578 
 32.54         2580 
 32.56         2603 
 32.58         2498 
 32.6          2371 
 32.62         2268 
 32.64         1934 
 32.66         1816 
 32.68         1595 
 32.7          1401 
 32.72         1122 
 32.74         930 
 32.76         744 
 32.78         582 
 32.8          505 
 32.82         406 
 32.84         369 
 32.86         350 
 32.88         299 
 32.9          286 
 32.92         246 
 32.94         280 
 32.96         254 
 32.98         270 
 33            224 
 33.02         219 
 33.04         176 
 33.06         206 
 33.08         170 
 33.1          210 
 33.12         163 
 33.14         153 
 33.16         142 
 33.18         152 
 33.2          142 
 33.22         112 
 33.24         99 
 33.26         115 
 33.28         119 
 33.3          103 
 33.32         103 
 33.34         104 
 33.36         105 
 33.38         103 
 33.4          85 
 33.42         75 
 33.44         94 
 33.46         82 
 33.48         67 
 33.5          70 
 33.52         76 
 33.54         60 
 33.56         58 
 33.58         75 
 33.6          67 
 33.62         61 
 33.64         71 
 33.66         52 
 33.68         65 
 33.7          55 
 33.72         64 
 33.74         56 
 33.76         47 
 33.78         47 
 33.8          50 
 33.82         59 
 33.84         61 
 33.86         57 
 33.88         54 
 33.9          60 
 33.92         62 
 33.94         68 
 33.96         69 
 33.98         57 
 34            74 
 34.02         61 
 34.04         48 
 34.06         70 
 34.08         56 
 34.1          50 
 34.12         56 
 34.14         52 
 34.16         53 
 34.18         63 
 34.2          72 
 34.22         75 
 34.24         62 
 34.26         91 
 34.28         95 
 34.3          106 
 34.32         115 
 34.34         118 
 34.36         109 
 34.38         112 
 34.4          108 
 34.42         134 
 34.44         114 
 34.46         151 
 34.48         128 
 34.5          146 
 34.52         155 
 34.54         159 
 34.56         183 
 34.58         217 
 34.6          237 
 34.62         242 
 34.64         254 
 34.66         280 
 34.68         235 
 34.7          214 
 34.72         202 
 34.74         159 
 34.76         149 
 34.78         114 
 34.8          111 
 34.82         94 
 34.84         70 
 34.86         64 
 34.88         65 
 34.9          65 
 34.92         56 
 34.94         69 
 34.96         65 
 34.98         50 
 35            63 
 35.02         60 
 35.04         62 
 35.06         35 
 35.08         50 
 35.1          40 
 35.12         42 
 35.14         64 
 35.16         47 
 35.18         50 
 35.2          49 
 35.22         44 
 35.24         46 
 35.26         35 
 35.28         59 
 35.3          44 
 35.32         50 
 35.34         43 
 35.36         50 
 35.38         42 
 35.4          64 
 35.42         46 
 35.44         64 
 35.46         57 
 35.48         76 
 35.5          69 
 35.52         68 
 35.54         70 
 35.56         59 
 35.58         50 
 35.6          60 
 35.62         52 
 35.64         52 
 35.66         42 
 35.68         48 
 35.7          44 
 35.72         46 
 35.74         35 
 35.76         40 
 35.78         43 
 35.8          44 
 35.82         31 
 35.84         47 
 35.86         40 
 35.88         39 
 35.9          44 
 35.92         41 
 35.94         31 
 35.96         39 
 35.98         49 
 36            50 
 36.02         39 
 36.04         42 
 36.06         47 
 36.08         48 
 36.1          34 
 36.12         43 
 36.14         35 
 36.16         35 
 36.18         31 
 36.2          44 
 36.22         41 
 36.24         42 
 36.26         48 
 36.28         40 
 36.3          43 
 36.32         41 
 36.34         49 
 36.36         42 
 36.38         41 
 36.4          38 
 36.42         46 
 36.44         46 
 36.46         38 
 36.48         34 
 36.5          34 
 36.52         61 
 36.54         32 
 36.56         42 
 36.58         45 
 36.6          39 
 36.62         39 
 36.64         45 
 36.66         27 
 36.68         32 
 36.7          46 
 36.72         40 
 36.74         37 
 36.76         44 
 36.78         50 
 36.8          30 
 36.82         34 
 36.84         50 
 36.86         40 
 36.88         50 
 36.9          38 
 36.92         50 
 36.94         39 
 36.96         26 
 36.98         30 
 37            31 
 37.02         26 
 37.04         40 
 37.06         55 
 37.08         51 
 37.1          33 
 37.12         38 
 37.14         47 
 37.16         49 
 37.18         32 
 37.2          35 
 37.22         50 
 37.24         38 
 37.26         31 
 37.28         41 
 37.3          40 
 37.32         33 
 37.34         51 
 37.36         40 
 37.38         41 
 37.4          36 
 37.42         46 
 37.44         32 
 37.46         41 
 37.48         41 
 37.5          39 
 37.52         44 
 37.54         42 
 37.56         39 
 37.58         37 
 37.6          40 
 37.62         31 
 37.64         48 
 37.66         58 
 37.68         52 
 37.7          41 
 37.72         46 
 37.74         47 
 37.76         36 
 37.78         34 
 37.8          57 
 37.82         60 
 37.84         46 
 37.86         50 
 37.88         30 
 37.9          41 
 37.92         35 
 37.94         37 
 37.96         41 
 37.98         33 
 38            39 
 38.02         60 
 38.04         38 
 38.06         41 
 38.08         47 
 38.1          48 
 38.12         48 
 38.14         42 
 38.16         44 
 38.18         48 
 38.2          62 
 38.22         57 
 38.24         60 
 38.26         55 
 38.28         54 
 38.3          49 
 38.32         40 
 38.34         61 
 38.36         44 
 38.38         58 
 38.4          37 
 38.42         52 
 38.44         53 
 38.46         67 
 38.48         55 
 38.5          58 
 38.52         48 
 38.54         53 
 38.56         60 
 38.58         52 
 38.6          51 
 38.62         56 
 38.64         61 
 38.66         57 
 38.68         42 
 38.7          51 
 38.72         60 
 38.74         56 
 38.76         52 
 38.78         47 
 38.8          64 
 38.82         54 
 38.84         61 
 38.86         68 
 38.88         64 
 38.9          67 
 38.92         68 
 38.94         50 
 38.96         71 
 38.98         68 
 39            72 
 39.02         66 
 39.04         68 
 39.06         53 
 39.08         48 
 39.1          67 
 39.12         73 
 39.14         66 
 39.16         63 
 39.18         75 
 39.2          49 
 39.22         51 
 39.24         60 
 39.26         56 
 39.28         57 
 39.3          57 
 39.32         62 
 39.34         55 
 39.36         72 
 39.38         58 
 39.4          37 
 39.42         57 
 39.44         72 
 39.46         51 
 39.48         62 
 39.5          65 
 39.52         51 
 39.54         55 
 39.56         69 
 39.58         55 
 39.6          65 
 39.62         66 
 39.64         67 
 39.66         59 
 39.68         52 
 39.7          58 
 39.72         64 
 39.74         76 
 39.76         76 
 39.78         63 
 39.8          85 
 39.82         92 
 39.84         93 
 39.86         89 
 39.88         115 
 39.9          120 
 39.92         121 
 39.94         137 
 39.96         117 
 39.98         160 
 40            169 
 40.02         205 
 40.04         253 
 40.06         315 
 40.08         406 
 40.1          555 
 40.12         558 
 40.14         639 
 40.16         667 
 40.18         638 
 40.2          564 
 40.22         479 
 40.24         472 
 40.26         388 
 40.28         378 
 40.3          270 
 40.32         225 
 40.34         162 
 40.36         131 
 40.38         108 
 40.4          90 
 40.42         88 
 40.44         77 
 40.46         68 
 40.48         59 
 40.5          59 
 40.52         71 
 40.54         55 
 40.56         55 
 40.58         54 
 40.6          49 
 40.62         55 
 40.64         65 
 40.66         37 
 40.68         55 
 40.7          44 
 40.72         45 
 40.74         46 
 40.76         44 
 40.78         48 
 40.8          41 
 40.82         45 
 40.84         53 
 40.86         42 
 40.88         45 
 40.9          30 
 40.92         45 
 40.94         42 
 40.96         47 
 40.98         48 
 41            58 
 41.02         41 
 41.04         30 
 41.06         51 
 41.08         50 
 41.1          46 
 41.12         53 
 41.14         47 
 41.16         54 
 41.18         48 
 41.2          62 
 41.22         42 
 41.24         46 
 41.26         55 
 41.28         53 
 41.3          49 
 41.32         48 
 41.34         46 
 41.36         49 
 41.38         43 
 41.4          57 
 41.42         54 
 41.44         53 
 41.46         53 
 41.48         52 
 41.5          47 
 41.52         63 
 41.54         57 
 41.56         64 
 41.58         62 
 41.6          70 
 41.62         85 
 41.64         78 
 41.66         90 
 41.68         96 
 41.7          123 
 41.72         109 
 41.74         130 
 41.76         151 
 41.78         124 
 41.8          124 
 41.82         135 
 41.84         120 
 41.86         115 
 41.88         115 
 41.9          89 
 41.92         91 
 41.94         82 
 41.96         76 
 41.98         68 
 42            72 
 42.02         67 
 42.04         52 
 42.06         55 
 42.08         65 
 42.1          54 
 42.12         44 
 42.14         59 
 42.16         61 
 42.18         50 
 42.2          35 
 42.22         47 
 42.24         62 
 42.26         55 
 42.28         55 
 42.3          47 
 42.32         59 
 42.34         58 
 42.36         41 
 42.38         51 
 42.4          55 
 42.42         66 
 42.44         52 
 42.46         58 
 42.48         43 
 42.5          46 
 42.52         46 
 42.54         41 
 42.56         48 
 42.58         60 
 42.6          56 
 42.62         53 
 42.64         51 
 42.66         46 
 42.68         54 
 42.7          41 
 42.72         71 
 42.74         43 
 42.76         54 
 42.78         57 
 42.8          42 
 42.82         53 
 42.84         47 
 42.86         56 
 42.88         68 
 42.9          54 
 42.92         76 
 42.94         59 
 42.96         72 
 42.98         60 
 43            76 
 43.02         46 
 43.04         59 
 43.06         62 
 43.08         61 
 43.1          63 
 43.12         68 
 43.14         87 
 43.16         87 
 43.18         86 
 43.2          85 
 43.22         70 
 43.24         70 
 43.26         76 
 43.28         75 
 43.3          68 
 43.32         56 
 43.34         48 
 43.36         45 
 43.38         46 
 43.4          45 
 43.42         42 
 43.44         35 
 43.46         49 
 43.48         48 
 43.5          28 
 43.52         47 
 43.54         65 
 43.56         52 
 43.58         44 
 43.6          49 
 43.62         47 
 43.64         50 
 43.66         45 
 43.68         52 
 43.7          42 
 43.72         61 
 43.74         40 
 43.76         42 
 43.78         41 
 43.8          36 
 43.82         32 
 43.84         48 
 43.86         48 
 43.88         41 
 43.9          29 
 43.92         40 
 43.94         43 
 43.96         35 
 43.98         42 
 44            45 
 44.02         60 
 44.04         37 
 44.06         41 
 44.08         44 
 44.1          34 
 44.12         47 
 44.14         36 
 44.16         53 
 44.18         43 
 44.2          38 
 44.22         52 
 44.24         50 
 44.26         41 
 44.28         48 
 44.3          45 
 44.32         40 
 44.34         47 
 44.36         41 
 44.38         43 
 44.4          36 
 44.42         46 
 44.44         43 
 44.46         28 
 44.48         48 
 44.5          41 
 44.52         40 
 44.54         41 
 44.56         45 
 44.58         45 
 44.6          38 
 44.62         45 
 44.64         40 
 44.66         33 
 44.68         42 
 44.7          36 
 44.72         30 
 44.74         42 
 44.76         36 
 44.78         51 
 44.8          48 
 44.82         42 
 44.84         41 
 44.86         39 
 44.88         40 
 44.9          39 
 44.92         48 
 44.94         40 
 44.96         33 
 44.98         50 
 45            41 
 45.02         39 
 45.04         42 
 45.06         48 
 45.08         52 
 45.1          38 
 45.12         41 
 45.14         49 
 45.16         43 
 45.18         41 
 45.2          38 
 45.22         48 
 45.24         56 
 45.26         40 
 45.28         41 
 45.3          34 
 45.32         35 
 45.34         34 
 45.36         41 
 45.38         44 
 45.4          45 
 45.42         41 
 45.44         44 
 45.46         51 
 45.48         33 
 45.5          42 
 45.52         39 
 45.54         35 
 45.56         41 
 45.58         43 
 45.6          53 
 45.62         43 
 45.64         38 
 45.66         42 
 45.68         28 
 45.7          54 
 45.72         40 
 45.74         39 
 45.76         43 
 45.78         59 
 45.8          47 
 45.82         49 
 45.84         48 
 45.86         47 
 45.88         35 
 45.9          65 
 45.92         52 
 45.94         44 
 45.96         46 
 45.98         53 
 46            57 
 46.02         63 
 46.04         61 
 46.06         61 
 46.08         64 
 46.1          64 
 46.12         90 
 46.14         71 
 46.16         74 
 46.18         69 
 46.2          84 
 46.22         80 
 46.24         138 
 46.26         119 
 46.28         152 
 46.3          150 
 46.32         145 
 46.34         206 
 46.36         196 
 46.38         263 
 46.4          322 
 46.42         347 
 46.44         381 
 46.46         366 
 46.48         431 
 46.5          420 
 46.52         434 
 46.54         441 
 46.56         404 
 46.58         422 
 46.6          397 
 46.62         416 
 46.64         378 
 46.66         408 
 46.68         385 
 46.7          436 
 46.72         439 
 46.74         520 
 46.76         609 
 46.78         675 
 46.8          808 
 46.82         920 
 46.84         941 
 46.86         1027 
 46.88         1055 
 46.9          996 
 46.92         1001 
 46.94         890 
 46.96         866 
 46.98         728 
 47            634 
 47.02         603 
 47.04         519 
 47.06         433 
 47.08         329 
 47.1          274 
 47.12         242 
 47.14         199 
 47.16         180 
 47.18         152 
 47.2          124 
 47.22         106 
 47.24         82 
 47.26         107 
 47.28         110 
 47.3          103 
 47.32         75 
 47.34         78 
 47.36         77 
 47.38         69 
 47.4          87 
 47.42         63 
 47.44         70 
 47.46         69 
 47.48         76 
 47.5          57 
 47.52         79 
 47.54         56 
 47.56         55 
 47.58         61 
 47.6          57 
 47.62         64 
 47.64         64 
 47.66         60 
 47.68         72 
 47.7          75 
 47.72         56 
 47.74         70 
 47.76         69 
 47.78         75 
 47.8          70 
 47.82         79 
 47.84         75 
 47.86         66 
 47.88         77 
 47.9          80 
 47.92         93 
 47.94         80 
 47.96         92 
 47.98         86 
 48            102 
 48.02         131 
 48.04         149 
 48.06         157 
 48.08         179 
 48.1          183 
 48.12         241 
 48.14         247 
 48.16         258 
 48.18         255 
 48.2          271 
 48.22         264 
 48.24         270 
 48.26         252 
 48.28         271 
 48.3          254 
 48.32         220 
 48.34         239 
 48.36         210 
 48.38         210 
 48.4          200 
 48.42         181 
 48.44         155 
 48.46         160 
 48.48         128 
 48.5          133 
 48.52         118 
 48.54         119 
 48.56         97 
 48.58         92 
 48.6          78 
 48.62         80 
 48.64         72 
 48.66         52 
 48.68         71 
 48.7          50 
 48.72         56 
 48.74         64 
 48.76         50 
 48.78         45 
 48.8          41 
 48.82         35 
 48.84         53 
 48.86         48 
 48.88         40 
 48.9          47 
 48.92         56 
 48.94         45 
 48.96         38 
 48.98         38 
 49            45 
 49.02         46 
 49.04         35 
 49.06         36 
 49.08         43 
 49.1          59 
 49.12         50 
 49.14         41 
 49.16         46 
 49.18         54 
 49.2          55 
 49.22         39 
 49.24         48 
 49.26         38 
 49.28         48 
 49.3          35 
 49.32         42 
 49.34         30 
 49.36         42 
 49.38         33 
 49.4          39 
 49.42         34 
 49.44         37 
 49.46         34 
 49.48         34 
 49.5          31 
 49.52         39 
 49.54         31 
 49.56         38 
 49.58         30 
 49.6          35 
 49.62         42 
 49.64         24 
 49.66         40 
 49.68         25 
 49.7          32 
 49.72         33 
 49.74         37 
 49.76         40 
 49.78         46 
 49.8          29 
 49.82         37 
 49.84         37 
 49.86         36 
 49.88         34 
 49.9          31 
 49.92         34 
 49.94         25 
 49.96         29 
 49.98         42 
 50            47 
 50.02         36 
 50.04         31 
 50.06         33 
 50.08         50 
 50.1          29 
 50.12         39 
 50.14         31 
 50.16         38 
 50.18         30 
 50.2          44 
 50.22         37 
 50.24         32 
 50.26         39 
 50.28         37 
 50.3          42 
 50.32         31 
 50.34         33 
 50.36         23 
 50.38         25 
 50.4          49 
 50.42         38 
 50.44         43 
 50.46         34 
 50.48         32 
 50.5          34 
 50.52         33 
 50.54         20 
 50.56         27 
 50.58         29 
 50.6          29 
 50.62         25 
 50.64         40 
 50.66         37 
 50.68         30 
 50.7          33 
 50.72         38 
 50.74         30 
 50.76         39 
 50.78         35 
 50.8          39 
 50.82         32 
 50.84         34 
 50.86         26 
 50.88         30 
 50.9          34 
 50.92         35 
 50.94         36 
 50.96         36 
 50.98         35 
 51            42 
 51.02         35 
 51.04         43 
 51.06         38 
 51.08         41 
 51.1          35 
 51.12         45 
 51.14         35 
 51.16         31 
 51.18         39 
 51.2          46 
 51.22         26 
 51.24         38 
 51.26         34 
 51.28         37 
 51.3          39 
 51.32         48 
 51.34         51 
 51.36         48 
 51.38         41 
 51.4          45 
 51.42         45 
 51.44         39 
 51.46         48 
 51.48         52 
 51.5          51 
 51.52         41 
 51.54         40 
 51.56         46 
 51.58         52 
 51.6          43 
 51.62         52 
 51.64         39 
 51.66         42 
 51.68         52 
 51.7          40 
 51.72         31 
 51.74         39 
 51.76         46 
 51.78         53 
 51.8          39 
 51.82         40 
 51.84         38 
 51.86         35 
 51.88         32 
 51.9          30 
 51.92         44 
 51.94         41 
 51.96         35 
 51.98         50 
 52            32 
 52.02         37 
 52.04         30 
 52.06         41 
 52.08         37 
 52.1          42 
 52.12         44 
 52.14         43 
 52.16         42 
 52.18         41 
 52.2          39 
 52.22         50 
 52.24         43 
 52.26         39 
 52.28         46 
 52.3          58 
 52.32         46 
 52.34         42 
 52.36         50 
 52.38         50 
 52.4          63 
 52.42         87 
 52.44         56 
 52.46         60 
 52.48         58 
 52.5          67 
 52.52         52 
 52.54         52 
 52.56         60 
 52.58         68 
 52.6          68 
 52.62         65 
 52.64         59 
 52.66         64 
 52.68         76 
 52.7          77 
 52.72         99 
 52.74         97 
 52.76         75 
 52.78         75 
 52.8          67 
 52.82         74 
 52.84         75 
 52.86         53 
 52.88         56 
 52.9          63 
 52.92         55 
 52.94         57 
 52.96         62 
 52.98         60 
 53            52 
 53.02         49 
 53.04         54 
 53.06         53 
 53.08         55 
 53.1          43 
 53.12         43 
 53.14         49 
 53.16         35 
 53.18         53 
 53.2          46 
 53.22         49 
 53.24         40 
 53.26         34 
 53.28         39 
 53.3          41 
 53.32         38 
 53.34         54 
 53.36         44 
 53.38         46 
 53.4          46 
 53.42         45 
 53.44         42 
 53.46         33 
 53.48         47 
 53.5          42 
 53.52         51 
 53.54         31 
 53.56         35 
 53.58         48 
 53.6          44 
 53.62         56 
 53.64         50 
 53.66         54 
 53.68         43 
 53.7          55 
 53.72         50 
 53.74         57 
 53.76         54 
 53.78         45 
 53.8          49 
 53.82         55 
 53.84         55 
 53.86         62 
 53.88         63 
 53.9          74 
 53.92         86 
 53.94         65 
 53.96         66 
 53.98         71 
 54            88 
 54.02         94 
 54.04         93 
 54.06         111 
 54.08         111 
 54.1          134 
 54.12         141 
 54.14         164 
 54.16         171 
 54.18         187 
 54.2          205 
 54.22         224 
 54.24         205 
 54.26         182 
 54.28         178 
 54.3          175 
 54.32         169 
 54.34         167 
 54.36         127 
 54.38         140 
 54.4          105 
 54.42         99 
 54.44         95 
 54.46         85 
 54.48         71 
 54.5          78 
 54.52         64 
 54.54         64 
 54.56         62 
 54.58         59 
 54.6          59 
 54.62         55 
 54.64         65 
 54.66         47 
 54.68         53 
 54.7          45 
 54.72         65 
 54.74         58 
 54.76         51 
 54.78         59 
 54.8          62 
 54.82         37 
 54.84         63 
 54.86         58 
 54.88         56 
 54.9          54 
 54.92         53 
 54.94         53 
 54.96         39 
 54.98         42 
 55            55 
 55.02         69 
 55.04         68 
 55.06         61 
 55.08         56 
 55.1          62 
 55.12         40 
 55.14         41 
 55.16         38 
 55.18         56 
 55.2          55 
 55.22         42 
 55.24         45 
 55.26         41 
 55.28         51 
 55.3          45 
 55.32         41 
 55.34         36 
 55.36         43 
 55.38         61 
 55.4          50 
 55.42         50 
 55.44         48 
 55.46         49 
 55.48         45 
 55.5          42 
 55.52         40 
 55.54         42 
 55.56         54 
 55.58         46 
 55.6          53 
 55.62         43 
 55.64         47 
 55.66         45 
 55.68         41 
 55.7          48 
 55.72         47 
 55.74         51 
 55.76         37 
 55.78         44 
 55.8          51 
 55.82         36 
 55.84         54 
 55.86         56 
 55.88         71 
 55.9          74 
 55.92         68 
 55.94         75 
 55.96         77 
 55.98         75 
 56            64 
 56.02         55 
 56.04         54 
 56.06         77 
 56.08         62 
 56.1          52 
 56.12         66 
 56.14         59 
 56.16         64 
 56.18         61 
 56.2          60 
 56.22         53 
 56.24         68 
 56.26         49 
 56.28         63 
 56.3          43 
 56.32         62 
 56.34         50 
 56.36         50 
 56.38         44 
 56.4          55 
 56.42         59 
 56.44         55 
 56.46         49 
 56.48         48 
 56.5          46 
 56.52         42 
 56.54         41 
 56.56         38 
 56.58         48 
 56.6          38 
 56.62         57 
 56.64         54 
 56.66         34 
 56.68         51 
 56.7          48 
 56.72         40 
 56.74         54 
 56.76         42 
 56.78         40 
 56.8          40 
 56.82         62 
 56.84         36 
 56.86         52 
 56.88         47 
 56.9          50 
 56.92         41 
 56.94         49 
 56.96         42 
 56.98         57 
 57            43 
 57.02         43 
 57.04         62 
 57.06         45 
 57.08         53 
 57.1          53 
 57.12         62 
 57.14         51 
 57.16         50 
 57.18         60 
 57.2          47 
 57.22         53 
 57.24         54 
 57.26         48 
 57.28         47 
 57.3          50 
 57.32         54 
 57.34         51 
 57.36         47 
 57.38         49 
 57.4          52 
 57.42         57 
 57.44         70 
 57.46         68 
 57.48         76 
 57.5          56 
 57.52         65 
 57.54         75 
 57.56         69 
 57.58         80 
 57.6          79 
 57.62         63 
 57.64         85 
 57.66         90 
 57.68         94 
 57.7          91 
 57.72         101 
 57.74         104 
 57.76         117 
 57.78         137 
 57.8          155 
 57.82         179 
 57.84         170 
 57.86         201 
 57.88         262 
 57.9          316 
 57.92         355 
 57.94         367 
 57.96         412 
 57.98         470 
 58            456 
 58.02         473 
 58.04         518 
 58.06         555 
 58.08         551 
 58.1          544 
 58.12         647 
 58.14         727 
 58.16         815 
 58.18         857 
 58.2          948 
 58.22         970 
 58.24         964 
 58.26         896 
 58.28         899 
 58.3          784 
 58.32         768 
 58.34         689 
 58.36         721 
 58.38         580 
 58.4          569 
 58.42         488 
 58.44         468 
 58.46         367 
 58.48         319 
 58.5          255 
 58.52         227 
 58.54         205 
 58.56         178 
 58.58         155 
 58.6          181 
 58.62         188 
 58.64         149 
 58.66         135 
 58.68         120 
 58.7          120 
 58.72         116 
 58.74         100 
 58.76         113 
 58.78         122 
 58.8          91 
 58.82         81 
 58.84         95 
 58.86         80 
 58.88         96 
 58.9          99 
 58.92         90 
 58.94         80 
 58.96         76 
 58.98         68 
 59            53 
 59.02         62 
 59.04         76 
 59.06         62 
 59.08         44 
 59.1          49 
 59.12         62 
 59.14         63 
 59.16         62 
 59.18         76 
 59.2          56 
 59.22         67 
 59.24         60 
 59.26         40 
 59.28         54 
 59.3          74 
 59.32         75 
 59.34         72 
 59.36         69 
 59.38         81 
 59.4          97 
 59.42         69 
 59.44         107 
 59.46         82 
 59.48         81 
 59.5          92 
 59.52         78 
 59.54         92 
 59.56         88 
 59.58         86 
 59.6          68 
 59.62         69 
 59.64         70 
 59.66         72 
 59.68         58 
 59.7          43 
 59.72         53 
 59.74         35 
 59.76         48 
 59.78         49 
 59.8          33 
 59.82         42 
 59.84         42 
 59.86         48 
 59.88         40 
 59.9          36 
 59.92         24 
 59.94         28 
 59.96         33 
 59.98         39 
 60            40 
 60.02         32 
 60.04         36 
 60.06         22 
 60.08         35 
 60.1          29 
 60.12         33 
 60.14         39 
 60.16         41 
 60.18         39 
 60.2          32 
 60.22         32 
 60.24         32 
 60.26         22 
 60.28         29 
 60.3          32 
 60.32         27 
 60.34         26 
 60.36         33 
 60.38         25 
 60.4          27 
 60.42         32 
 60.44         26 
 60.46         34 
 60.48         26 
 60.5          32 
 60.52         21 
 60.54         24 
 60.56         26 
 60.58         23 
 60.6          14 
 60.62         30 
 60.64         39 
 60.66         22 
 60.68         33 
 60.7          26 
 60.72         26 
 60.74         24 
 60.76         24 
 60.78         27 
 60.8          30 
 60.82         22 
 60.84         35 
 60.86         27 
 60.88         35 
 60.9          31 
 60.92         30 
 60.94         40 
 60.96         30 
 60.98         36 
 61            23 
 61.02         24 
 61.04         24 
 61.06         25 
 61.08         25 
 61.1          33 
 61.12         30 
 61.14         26 
 61.16         18 
 61.18         35 
 61.2          48 
 61.22         40 
 61.24         44 
 61.26         32 
 61.28         33 
 61.3          30 
 61.32         30 
 61.34         37 
 61.36         30 
 61.38         21 
 61.4          32 
 61.42         25 
 61.44         28 
 61.46         34 
 61.48         34 
 61.5          30 
 61.52         20 
 61.54         38 
 61.56         28 
 61.58         25 
 61.6          16 
 61.62         23 
 61.64         27 
 61.66         25 
 61.68         31 
 61.7          27 
 61.72         29 
 61.74         24 
 61.76         24 
 61.78         32 
 61.8          26 
 61.82         40 
 61.84         26 
 61.86         31 
 61.88         23 
 61.9          33 
 61.92         27 
 61.94         20 
 61.96         28 
 61.98         35 
 62            35 
 62.02         29 
 62.04         23 
 62.06         30 
 62.08         31 
 62.1          31 
 62.12         38 
 62.14         26 
 62.16         28 
 62.18         24 
 62.2          34 
 62.22         38 
 62.24         23 
 62.26         25 
 62.28         23 
 62.3          25 
 62.32         30 
 62.34         28 
 62.36         21 
 62.38         39 
 62.4          31 
 62.42         27 
 62.44         31 
 62.46         25 
 62.48         31 
 62.5          19 
 62.52         23 
 62.54         33 
 62.56         41 
 62.58         36 
 62.6          37 
 62.62         30 
 62.64         25 
 62.66         36 
 62.68         37 
 62.7          39 
 62.72         45 
 62.74         54 
 62.76         51 
 62.78         33 
 62.8          39 
 62.82         38 
 62.84         31 
 62.86         33 
 62.88         40 
 62.9          36 
 62.92         38 
 62.94         44 
 62.96         30 
 62.98         36 
 63            40 
 63.02         38 
 63.04         27 
 63.06         34 
 63.08         36 
 63.1          23 
 63.12         24 
 63.14         29 
 63.16         24 
 63.18         14 
 63.2          23 
 63.22         25 
 63.24         42 
 63.26         28 
 63.28         33 
 63.3          32 
 63.32         28 
 63.34         24 
 63.36         32 
 63.38         25 
 63.4          23 
 63.42         24 
 63.44         25 
 63.46         35 
 63.48         28 
 63.5          30 
 63.52         20 
 63.54         28 
 63.56         27 
 63.58         40 
 63.6          24 
 63.62         32 
 63.64         28 
 63.66         27 
 63.68         30 
 63.7          38 
 63.72         33 
 63.74         27 
 63.76         36 
 63.78         34 
 63.8          39 
 63.82         29 
 63.84         38 
 63.86         40 
 63.88         40 
 63.9          38 
 63.92         47 
 63.94         27 
 63.96         36 
 63.98         31 
 64            39 
 64.02         48 
 64.04         44 
 64.06         53 
 64.08         46 
 64.1          61 
 64.12         66 
 64.14         58 
 64.16         72 
 64.18         94 
 64.2          74 
 64.22         74 
 64.24         103 
 64.26         85 
 64.28         98 
 64.3          101 
 64.32         105 
 64.34         102 
 64.36         128 
 64.38         99 
 64.4          85 
 64.42         84 
 64.44         95 
 64.46         104 
 64.48         95 
 64.5          104 
 64.52         105 
 64.54         92 
 64.56         96 
 64.58         116 
 64.6          118 
 64.62         108 
 64.64         84 
 64.66         96 
 64.68         86 
 64.7          77 
 64.72         84 
 64.74         65 
 64.76         77 
 64.78         54 
 64.8          76 
 64.82         69 
 64.84         52 
 64.86         54 
 64.88         60 
 64.9          54 
 64.92         46 
 64.94         58 
 64.96         39 
 64.98         50 
 65            50 
 65.02         42 
 65.04         39 
 65.06         53 
 65.08         48 
 65.1          48 
 65.12         31 
 65.14         44 
 65.16         53 
 65.18         39 
 65.2          36 
 65.22         36 
 65.24         49 
 65.26         38 
 65.28         43 
 65.3          28 
 65.32         42 
 65.34         36 
 65.36         45 
 65.38         31 
 65.4          32 
 65.42         33 
 65.44         38 
 65.46         40 
 65.48         31 
 65.5          34 
 65.52         36 
 65.54         32 
 65.56         33 
 65.58         32 
 65.6          31 
 65.62         29 
 65.64         43 
 65.66         32 
 65.68         28 
 65.7          33 
 65.72         30 
 65.74         44 
 65.76         39 
 65.78         25 
 65.8          43 
 65.82         29 
 65.84         34 
 65.86         40 
 65.88         39 
 65.9          33 
 65.92         44 
 65.94         47 
 65.96         26 
 65.98         38 
 66            42 
 66.02         29 
 66.04         27 
 66.06         35 
 66.08         41 
 66.1          29 
 66.12         40 
 66.14         31 
 66.16         40 
 66.18         23 
 66.2          40 
 66.22         39 
 66.24         38 
 66.26         35 
 66.28         31 
 66.3          34 
 66.32         28 
 66.34         26 
 66.36         20 
 66.38         32 
 66.4          25 
 66.42         27 
 66.44         35 
 66.46         32 
 66.48         28 
 66.5          28 
 66.52         32 
 66.54         25 
 66.56         34 
 66.58         34 
 66.6          35 
 66.62         18 
 66.64         28 
 66.66         29 
 66.68         32 
 66.7          26 
 66.72         28 
 66.74         33 
 66.76         33 
 66.78         32 
 66.8          34 
 66.82         32 
 66.84         38 
 66.86         30 
 66.88         41 
 66.9          36 
 66.92         42 
 66.94         30 
 66.96         31 
 66.98         45 
 67            34 
 67.02         38 
 67.04         25 
 67.06         29 
 67.08         36 
 67.1          35 
 67.12         30 
 67.14         38 
 67.16         37 
 67.18         44 
 67.2          40 
 67.22         38 
 67.24         38 
 67.26         31 
 67.28         27 
 67.3          29 
 67.32         31 
 67.34         46 
 67.36         37 
 67.38         40 
 67.4          30 
 67.42         34 
 67.44         29 
 67.46         38 
 67.48         34 
 67.5          40 
 67.52         42 
 67.54         35 
 67.56         38 
 67.58         35 
 67.6          40 
 67.62         40 
 67.64         38 
 67.66         33 
 67.68         39 
 67.7          42 
 67.72         36 
 67.74         47 
 67.76         54 
 67.78         51 
 67.8          60 
 67.82         49 
 67.84         61 
 67.86         64 
 67.88         77 
 67.9          66 
 67.92         86 
 67.94         76 
 67.96         86 
 67.98         89 
 68            121 
 68.02         132 
 68.04         163 
 68.06         191 
 68.08         231 
 68.1          285 
 68.12         308 
 68.14         330 
 68.16         339 
 68.18         355 
 68.2          381 
 68.22         405 
 68.24         375 
 68.26         381 
 68.28         371 
 68.3          374 
 68.32         328 
 68.34         337 
 68.36         374 
 68.38         363 
 68.4          367 
 68.42         368 
 68.44         401 
 68.46         388 
 68.48         386 
 68.5          357 
 68.52         353 
 68.54         287 
 68.56         254 
 68.58         273 
 68.6          229 
 68.62         211 
 68.64         234 
 68.66         236 
 68.68         202 
 68.7          187 
 68.72         170 
 68.74         134 
 68.76         130 
 68.78         141 
 68.8          113 
 68.82         92 
 68.84         81 
 68.86         75 
 68.88         77 
 68.9          77 
 68.92         63 
 68.94         61 
 68.96         67 
 68.98         77 
 69            67 
 69.02         55 
 69.04         63 
 69.06         55 
 69.08         48 
 69.1          50 
 69.12         50 
 69.14         53 
 69.16         53 
 69.18         63 
 69.2          54 
 69.22         52 
 69.24         58 
 69.26         39 
 69.28         46 
 69.3          46 
 69.32         60 
 69.34         46 
 69.36         41 
 69.38         45 
 69.4          45 
 69.42         60 
 69.44         36 
 69.46         39 
 69.48         44 
 69.5          43 
 69.52         44 
 69.54         61 
 69.56         54 
 69.58         59 
 69.6          50 
 69.62         76 
 69.64         58 
 69.66         50 
 69.68         68 
 69.7          58 
 69.72         81 
 69.74         59 
 69.76         58 
 69.78         55 
 69.8          53 
 69.82         50 
 69.84         52 
 69.86         59 
 69.88         46 
 69.9          36 
 69.92         50 
 69.94         36 
 69.96         41 
 69.98         43 
 70            36 
 70.02         37 
 70.04         29 
 70.06         45 
 70.08         31 
 70.1          33 
 70.12         32 
 70.14         33 
 70.16         27 
 70.18         23 
 70.2          25 
 70.22         33 
 70.24         28 
 70.26         34 
 70.28         29 
 70.3          31 
 70.32         25 
 70.34         26 
 70.36         24 
 70.38         23 
 70.4          23 
 70.42         31 
 70.44         28 
 70.46         27 
 70.48         36 
 70.5          28 
 70.52         29 
 70.54         22 
 70.56         23 
 70.58         19 
 70.6          26 
 70.62         31 
 70.64         24 
 70.66         26 
 70.68         29 
 70.7          24 
 70.72         27 
 70.74         13 
 70.76         21 
 70.78         31 
 70.8          23 
 70.82         22 
 70.84         28 
 70.86         23 
 70.88         20 
 70.9          30 
 70.92         14 
 70.94         33 
 70.96         22 
 70.98         22 
 71            23 
 71.02         20 
 71.04         24 
 71.06         22 
 71.08         21 
 71.1          21 
 71.12         25 
 71.14         18 
 71.16         21 
 71.18         27 
 71.2          27 
 71.22         19 
 71.24         33 
 71.26         19 
 71.28         30 
 71.3          15 
 71.32         27 
 71.34         25 
 71.36         23 
 71.38         29 
 71.4          25 
 71.42         16 
 71.44         26 
 71.46         25 
 71.48         16 
 71.5          19 
 71.52         21 
 71.54         31 
 71.56         15 
 71.58         23 
 71.6          25 
 71.62         18 
 71.64         18 
 71.66         23 
 71.68         22 
 71.7          25 
 71.72         26 
 71.74         21 
 71.76         23 
 71.78         18 
 71.8          24 
 71.82         25 
 71.84         33 
 71.86         21 
 71.88         30 
 71.9          33 
 71.92         36 
 71.94         29 
 71.96         25 
 71.98         28 
 72            26 
 72.02         37 
 72.04         18 
 72.06         33 
 72.08         36 
 72.1          26 
 72.12         29 
 72.14         22 
 72.16         34 
 72.18         19 
 72.2          26 
 72.22         29 
 72.24         26 
 72.26         29 
 72.28         32 
 72.3          20 
 72.32         29 
 72.34         28 
 72.36         24 
 72.38         28 
 72.4          24 
 72.42         20 
 72.44         33 
 72.46         29 
 72.48         28 
 72.5          36 
 72.52         22 
 72.54         38 
 72.56         44 
 72.58         37 
 72.6          40 
 72.62         35 
 72.64         25 
 72.66         50 
 72.68         49 
 72.7          40 
 72.72         35 
 72.74         47 
 72.76         28 
 72.78         35 
 72.8          41 
 72.82         39 
 72.84         36 
 72.86         33 
 72.88         44 
 72.9          36 
 72.92         57 
 72.94         58 
 72.96         52 
 72.98         48 
 73            42 
 73.02         39 
 73.04         43 
 73.06         53 
 73.08         48 
 73.1          40 
 73.12         57 
 73.14         48 
 73.16         55 
 73.18         69 
 73.2          60 
 73.22         49 
 73.24         67 
 73.26         56 
 73.28         46 
 73.3          54 
 73.32         55 
 73.34         43 
 73.36         40 
 73.38         34 
 73.4          48 
 73.42         35 
 73.44         47 
 73.46         27 
 73.48         33 
 73.5          39 
 73.52         35 
 73.54         28 
 73.56         44 
 73.58         37 
 73.6          36 
 73.62         27 
 73.64         36 
 73.66         28 
 73.68         39 
 73.7          32 
 73.72         33 
 73.74         33 
 73.76         22 
 73.78         37 
 73.8          27 
 73.82         29 
 73.84         38 
 73.86         32 
 73.88         28 
 73.9          27 
 73.92         27 
 73.93999      30 
 73.96         31 
 73.98         32 
 74            25 
 74.02         25 
 74.04         19 
 74.06         27 
 74.08         38 
 74.1          33 
 74.12         31 
 74.14         28 
 74.16         35 
 74.18         32 
 74.2          37 
 74.22         33 
 74.24         44 
 74.26         32 
 74.28         38 
 74.3          48 
 74.32         22 
 74.34         30 
 74.36         36 
 74.38         53 
 74.4          63 
 74.42         58 
 74.43999      52 
 74.46         48 
 74.48         50 
 74.5          49 
 74.52         41 
 74.54         58 
 74.56         55 
 74.58         44 
 74.6          38 
 74.62         40 
 74.64         37 
 74.66         38 
 74.68         44 
 74.7          44 
 74.72         36 
 74.74         39 
 74.76         43 
 74.78         31 
 74.8          38 
 74.82         33 
 74.84         38 
 74.86         27 
 74.88         28 
 74.9          36 
 74.92         34 
 74.93999      23 
 74.96         38 
 74.98         27 
 75            31 
