LLTO kalziniert  Original Data
 3151 
 12            295 
 12.02         234 
 12.04         251 
 12.06         262 
 12.08         257 
 12.1          249 
 12.12         257 
 12.14         254 
 12.16         249 
 12.18         246 
 12.2          284 
 12.22         254 
 12.24         228 
 12.26         246 
 12.28         245 
 12.3          256 
 12.32         260 
 12.34         221 
 12.36         249 
 12.38         244 
 12.4          221 
 12.42         260 
 12.44         231 
 12.46         251 
 12.48         233 
 12.5          240 
 12.52         242 
 12.54         237 
 12.56         223 
 12.58         234 
 12.6          256 
 12.62         236 
 12.64         224 
 12.66         231 
 12.68         234 
 12.7          231 
 12.72         237 
 12.74         235 
 12.76         248 
 12.78         193 
 12.8          241 
 12.82         206 
 12.84         255 
 12.86         249 
 12.88         225 
 12.9          266 
 12.92         235 
 12.94         229 
 12.96         252 
 12.98         236 
 13            233 
 13.02         235 
 13.04         245 
 13.06         212 
 13.08         230 
 13.1          261 
 13.12         236 
 13.14         248 
 13.16         234 
 13.18         235 
 13.2          238 
 13.22         239 
 13.24         231 
 13.26         231 
 13.28         242 
 13.3          241 
 13.32         223 
 13.34         213 
 13.36         231 
 13.38         216 
 13.4          238 
 13.42         262 
 13.44         215 
 13.46         206 
 13.48         238 
 13.5          213 
 13.52         228 
 13.54         244 
 13.56         207 
 13.58         240 
 13.6          198 
 13.62         245 
 13.64         237 
 13.66         232 
 13.68         208 
 13.7          212 
 13.72         216 
 13.74         225 
 13.76         239 
 13.78         252 
 13.8          207 
 13.82         247 
 13.84         205 
 13.86         208 
 13.88         217 
 13.9          196 
 13.92         202 
 13.94         215 
 13.96         233 
 13.98         185 
 14            194 
 14.02         191 
 14.04         203 
 14.06         180 
 14.08         189 
 14.1          179 
 14.12         176 
 14.14         196 
 14.16         189 
 14.18         192 
 14.2          185 
 14.22         193 
 14.24         190 
 14.26         218 
 14.28         189 
 14.3          191 
 14.32         193 
 14.34         190 
 14.36         172 
 14.38         193 
 14.4          202 
 14.42         179 
 14.44         153 
 14.46         199 
 14.48         205 
 14.5          179 
 14.52         195 
 14.54         175 
 14.56         167 
 14.58         187 
 14.6          220 
 14.62         157 
 14.64         195 
 14.66         175 
 14.68         146 
 14.7          166 
 14.72         175 
 14.74         181 
 14.76         164 
 14.78         159 
 14.8          165 
 14.82         181 
 14.84         179 
 14.86         170 
 14.88         169 
 14.9          175 
 14.92         193 
 14.94         155 
 14.96         178 
 14.98         182 
 15            176 
 15.02         160 
 15.04         169 
 15.06         159 
 15.08         143 
 15.1          153 
 15.12         191 
 15.14         174 
 15.16         166 
 15.18         154 
 15.2          162 
 15.22         181 
 15.24         164 
 15.26         176 
 15.28         149 
 15.3          152 
 15.32         172 
 15.34         171 
 15.36         143 
 15.38         154 
 15.4          134 
 15.42         182 
 15.44         156 
 15.46         145 
 15.48         158 
 15.5          180 
 15.52         165 
 15.54         154 
 15.56         166 
 15.58         160 
 15.6          150 
 15.62         136 
 15.64         168 
 15.66         174 
 15.68         158 
 15.7          157 
 15.72         170 
 15.74         157 
 15.76         137 
 15.78         160 
 15.8          175 
 15.82         141 
 15.84         154 
 15.86         134 
 15.88         166 
 15.9          162 
 15.92         155 
 15.94         175 
 15.96         145 
 15.98         145 
 16            161 
 16.02         158 
 16.04         131 
 16.06         145 
 16.08         164 
 16.1          156 
 16.12         123 
 16.14         161 
 16.16         147 
 16.18         156 
 16.2          150 
 16.22         132 
 16.24         141 
 16.26         164 
 16.28         143 
 16.3          141 
 16.32         147 
 16.34         159 
 16.36         149 
 16.38         146 
 16.4          137 
 16.42         143 
 16.44         156 
 16.46         136 
 16.48         148 
 16.5          159 
 16.52         152 
 16.54         156 
 16.56         150 
 16.58         123 
 16.6          147 
 16.62         151 
 16.64         147 
 16.66         171 
 16.68         156 
 16.7          139 
 16.72         155 
 16.74         161 
 16.76         145 
 16.78         154 
 16.8          173 
 16.82         121 
 16.84         137 
 16.86         138 
 16.88         143 
 16.9          140 
 16.92         130 
 16.94         131 
 16.96         135 
 16.98         129 
 17            130 
 17.02         144 
 17.04         147 
 17.06         126 
 17.08         150 
 17.1          139 
 17.12         146 
 17.14         134 
 17.16         130 
 17.18         154 
 17.2          146 
 17.22         130 
 17.24         133 
 17.26         121 
 17.28         141 
 17.3          132 
 17.32         131 
 17.34         151 
 17.36         163 
 17.38         135 
 17.4          142 
 17.42         158 
 17.44         132 
 17.46         146 
 17.48         156 
 17.5          159 
 17.52         134 
 17.54         120 
 17.56         121 
 17.58         124 
 17.6          175 
 17.62         127 
 17.64         145 
 17.66         155 
 17.68         111 
 17.7          122 
 17.72         148 
 17.74         130 
 17.76         151 
 17.78         144 
 17.8          177 
 17.82         150 
 17.84         142 
 17.86         116 
 17.88         138 
 17.9          129 
 17.92         128 
 17.94         116 
 17.96         152 
 17.98         144 
 18            134 
 18.02         148 
 18.04         137 
 18.06         148 
 18.08         134 
 18.1          136 
 18.12         133 
 18.14         159 
 18.16         153 
 18.18         158 
 18.2          149 
 18.22         169 
 18.24         185 
 18.26         185 
 18.28         214 
 18.3          229 
 18.32         222 
 18.34         256 
 18.36         286 
 18.38         312 
 18.4          326 
 18.42         299 
 18.44         297 
 18.46         257 
 18.48         224 
 18.5          186 
 18.52         168 
 18.54         131 
 18.56         142 
 18.58         117 
 18.6          115 
 18.62         131 
 18.64         119 
 18.66         116 
 18.68         102 
 18.7          123 
 18.72         115 
 18.74         115 
 18.76         117 
 18.78         138 
 18.8          121 
 18.82         117 
 18.84         123 
 18.86         123 
 18.88         114 
 18.9          120 
 18.92         97 
 18.94         114 
 18.96         121 
 18.98         136 
 19            113 
 19.02         106 
 19.04         110 
 19.06         111 
 19.08         99 
 19.1          119 
 19.12         120 
 19.14         139 
 19.16         113 
 19.18         121 
 19.2          130 
 19.22         113 
 19.24         122 
 19.26         117 
 19.28         123 
 19.3          107 
 19.32         102 
 19.34         117 
 19.36         135 
 19.38         123 
 19.4          138 
 19.42         113 
 19.44         96 
 19.46         136 
 19.48         121 
 19.5          108 
 19.52         109 
 19.54         102 
 19.56         107 
 19.58         103 
 19.6          114 
 19.62         127 
 19.64         114 
 19.66         114 
 19.68         90 
 19.7          106 
 19.72         120 
 19.74         129 
 19.76         95 
 19.78         108 
 19.8          113 
 19.82         109 
 19.84         108 
 19.86         106 
 19.88         120 
 19.9          129 
 19.92         113 
 19.94         99 
 19.96         121 
 19.98         113 
 20            100 
 20.02         117 
 20.04         120 
 20.06         118 
 20.08         96 
 20.1          118 
 20.12         84 
 20.14         120 
 20.16         115 
 20.18         97 
 20.2          117 
 20.22         114 
 20.24         124 
 20.26         128 
 20.28         133 
 20.3          104 
 20.32         126 
 20.34         110 
 20.36         116 
 20.38         131 
 20.4          114 
 20.42         95 
 20.44         124 
 20.46         122 
 20.48         107 
 20.5          127 
 20.52         107 
 20.54         109 
 20.56         130 
 20.58         125 
 20.6          147 
 20.62         103 
 20.64         125 
 20.66         128 
 20.68         120 
 20.7          133 
 20.72         111 
 20.74         114 
 20.76         127 
 20.78         142 
 20.8          112 
 20.82         125 
 20.84         125 
 20.86         105 
 20.88         124 
 20.9          138 
 20.92         125 
 20.94         140 
 20.96         164 
 20.98         133 
 21            129 
 21.02         141 
 21.04         148 
 21.06         138 
 21.08         184 
 21.1          160 
 21.12         201 
 21.14         193 
 21.16         220 
 21.18         217 
 21.2          178 
 21.22         195 
 21.24         196 
 21.26         205 
 21.28         164 
 21.3          134 
 21.32         127 
 21.34         124 
 21.36         132 
 21.38         121 
 21.4          119 
 21.42         109 
 21.44         135 
 21.46         124 
 21.48         125 
 21.5          122 
 21.52         110 
 21.54         106 
 21.56         98 
 21.58         105 
 21.6          119 
 21.62         98 
 21.64         110 
 21.66         121 
 21.68         120 
 21.7          115 
 21.72         105 
 21.74         107 
 21.76         116 
 21.78         96 
 21.8          107 
 21.82         113 
 21.84         110 
 21.86         125 
 21.88         92 
 21.9          117 
 21.92         108 
 21.94         110 
 21.96         112 
 21.98         108 
 22            103 
 22.02         105 
 22.04         115 
 22.06         103 
 22.08         96 
 22.1          89 
 22.12         120 
 22.14         81 
 22.16         115 
 22.18         105 
 22.2          118 
 22.22         114 
 22.24         121 
 22.26         109 
 22.28         112 
 22.3          98 
 22.32         100 
 22.34         127 
 22.36         120 
 22.38         107 
 22.4          98 
 22.42         113 
 22.44         115 
 22.46         98 
 22.48         117 
 22.5          129 
 22.52         109 
 22.54         115 
 22.56         113 
 22.58         124 
 22.6          98 
 22.62         117 
 22.64         137 
 22.66         134 
 22.68         112 
 22.7          114 
 22.72         121 
 22.74         135 
 22.76         139 
 22.78         164 
 22.8          146 
 22.82         180 
 22.84         189 
 22.86         207 
 22.88         205 
 22.9          207 
 22.92         244 
 22.94         208 
 22.96         230 
 22.98         271 
 23            270 
 23.02         259 
 23.04         226 
 23.06         230 
 23.08         228 
 23.1          212 
 23.12         191 
 23.14         191 
 23.16         172 
 23.18         190 
 23.2          177 
 23.22         160 
 23.24         167 
 23.26         163 
 23.28         156 
 23.3          187 
 23.32         164 
 23.34         157 
 23.36         157 
 23.38         126 
 23.4          148 
 23.42         137 
 23.44         131 
 23.46         125 
 23.48         124 
 23.5          133 
 23.52         129 
 23.54         113 
 23.56         120 
 23.58         143 
 23.6          130 
 23.62         109 
 23.64         106 
 23.66         117 
 23.68         126 
 23.7          98 
 23.72         118 
 23.74         106 
 23.76         119 
 23.78         116 
 23.8          112 
 23.82         115 
 23.84         129 
 23.86         108 
 23.88         104 
 23.9          132 
 23.92         132 
 23.94         95 
 23.96         99 
 23.98         108 
 24            127 
 24.02         108 
 24.04         120 
 24.06         96 
 24.08         121 
 24.1          114 
 24.12         98 
 24.14         121 
 24.16         100 
 24.18         105 
 24.2          121 
 24.22         120 
 24.24         104 
 24.26         118 
 24.28         116 
 24.3          114 
 24.32         132 
 24.34         122 
 24.36         129 
 24.38         97 
 24.4          114 
 24.42         117 
 24.44         127 
 24.46         111 
 24.48         102 
 24.5          122 
 24.52         107 
 24.54         111 
 24.56         119 
 24.58         141 
 24.6          108 
 24.62         108 
 24.64         101 
 24.66         114 
 24.68         106 
 24.7          116 
 24.72         117 
 24.74         134 
 24.76         126 
 24.78         126 
 24.8          109 
 24.82         115 
 24.84         116 
 24.86         140 
 24.88         124 
 24.9          116 
 24.92         126 
 24.94         115 
 24.96         124 
 24.98         136 
 25            101 
 25.02         122 
 25.04         128 
 25.06         115 
 25.08         129 
 25.1          125 
 25.12         110 
 25.14         113 
 25.16         134 
 25.18         149 
 25.2          147 
 25.22         136 
 25.24         151 
 25.26         154 
 25.28         167 
 25.3          184 
 25.32         194 
 25.34         190 
 25.36         168 
 25.38         218 
 25.4          216 
 25.42         268 
 25.44         264 
 25.46         279 
 25.48         324 
 25.5          337 
 25.52         376 
 25.54         406 
 25.56         487 
 25.58         546 
 25.6          647 
 25.62         793 
 25.64         856 
 25.66         1078 
 25.68         1201 
 25.7          1399 
 25.72         1480 
 25.74         1569 
 25.76         1559 
 25.78         1583 
 25.8          1403 
 25.82         1178 
 25.84         984 
 25.86         806 
 25.88         608 
 25.9          499 
 25.92         384 
 25.94         335 
 25.96         316 
 25.98         249 
 26            272 
 26.02         227 
 26.04         199 
 26.06         224 
 26.08         193 
 26.1          159 
 26.12         165 
 26.14         169 
 26.16         165 
 26.18         183 
 26.2          179 
 26.22         189 
 26.24         168 
 26.26         175 
 26.28         190 
 26.3          170 
 26.32         165 
 26.34         177 
 26.36         153 
 26.38         135 
 26.4          143 
 26.42         137 
 26.44         166 
 26.46         131 
 26.48         117 
 26.5          156 
 26.52         165 
 26.54         128 
 26.56         136 
 26.58         122 
 26.6          141 
 26.62         124 
 26.64         150 
 26.66         127 
 26.68         129 
 26.7          134 
 26.72         126 
 26.74         127 
 26.76         127 
 26.78         130 
 26.8          108 
 26.82         137 
 26.84         114 
 26.86         109 
 26.88         116 
 26.9          137 
 26.92         123 
 26.94         127 
 26.96         135 
 26.98         135 
 27            104 
 27.02         133 
 27.04         123 
 27.06         140 
 27.08         131 
 27.1          135 
 27.12         117 
 27.14         125 
 27.16         141 
 27.18         130 
 27.2          127 
 27.22         130 
 27.24         137 
 27.26         118 
 27.28         140 
 27.3          104 
 27.32         152 
 27.34         173 
 27.36         134 
 27.38         136 
 27.4          127 
 27.42         127 
 27.44         118 
 27.46         132 
 27.48         153 
 27.5          144 
 27.52         135 
 27.54         150 
 27.56         152 
 27.58         148 
 27.6          155 
 27.62         167 
 27.64         156 
 27.66         211 
 27.68         198 
 27.7          224 
 27.72         207 
 27.74         224 
 27.76         218 
 27.78         252 
 27.8          237 
 27.82         223 
 27.84         194 
 27.86         205 
 27.88         189 
 27.9          178 
 27.92         150 
 27.94         165 
 27.96         171 
 27.98         162 
 28            149 
 28.02         154 
 28.04         161 
 28.06         141 
 28.08         164 
 28.1          155 
 28.12         190 
 28.14         201 
 28.16         209 
 28.18         230 
 28.2          230 
 28.22         203 
 28.24         205 
 28.26         166 
 28.28         203 
 28.3          163 
 28.32         154 
 28.34         171 
 28.36         152 
 28.38         167 
 28.4          153 
 28.42         161 
 28.44         155 
 28.46         154 
 28.48         189 
 28.5          165 
 28.52         176 
 28.54         159 
 28.56         164 
 28.58         185 
 28.6          206 
 28.62         224 
 28.64         206 
 28.66         190 
 28.68         208 
 28.7          241 
 28.72         228 
 28.74         210 
 28.76         207 
 28.78         242 
 28.8          204 
 28.82         255 
 28.84         209 
 28.86         226 
 28.88         205 
 28.9          208 
 28.92         181 
 28.94         198 
 28.96         207 
 28.98         186 
 29            193 
 29.02         178 
 29.04         177 
 29.06         156 
 29.08         175 
 29.1          175 
 29.12         162 
 29.14         166 
 29.16         165 
 29.18         160 
 29.2          166 
 29.22         148 
 29.24         168 
 29.26         153 
 29.28         129 
 29.3          147 
 29.32         155 
 29.34         146 
 29.36         120 
 29.38         133 
 29.4          141 
 29.42         143 
 29.44         157 
 29.46         127 
 29.48         157 
 29.5          150 
 29.52         151 
 29.54         154 
 29.56         173 
 29.58         137 
 29.6          148 
 29.62         163 
 29.64         154 
 29.66         163 
 29.68         140 
 29.7          145 
 29.72         187 
 29.74         180 
 29.76         197 
 29.78         207 
 29.8          290 
 29.82         274 
 29.84         310 
 29.86         338 
 29.88         345 
 29.9          371 
 29.92         333 
 29.94         314 
 29.96         282 
 29.98         265 
 30            247 
 30.02         183 
 30.04         169 
 30.06         171 
 30.08         163 
 30.1          156 
 30.12         130 
 30.14         127 
 30.16         138 
 30.18         131 
 30.2          126 
 30.22         119 
 30.24         132 
 30.26         117 
 30.28         145 
 30.3          125 
 30.32         116 
 30.34         96 
 30.36         102 
 30.38         125 
 30.4          127 
 30.42         83 
 30.44         116 
 30.46         99 
 30.48         99 
 30.5          108 
 30.52         114 
 30.54         110 
 30.56         98 
 30.58         90 
 30.6          95 
 30.62         109 
 30.64         111 
 30.66         99 
 30.68         85 
 30.7          96 
 30.72         97 
 30.74         86 
 30.76         117 
 30.78         91 
 30.8          99 
 30.82         99 
 30.84         84 
 30.86         104 
 30.88         92 
 30.9          92 
 30.92         110 
 30.94         105 
 30.96         78 
 30.98         101 
 31            88 
 31.02         88 
 31.04         95 
 31.06         90 
 31.08         94 
 31.1          110 
 31.12         83 
 31.14         99 
 31.16         97 
 31.18         109 
 31.2          75 
 31.22         93 
 31.24         93 
 31.26         91 
 31.28         88 
 31.3          87 
 31.32         93 
 31.34         96 
 31.36         84 
 31.38         104 
 31.4          96 
 31.42         89 
 31.44         105 
 31.46         89 
 31.48         111 
 31.5          94 
 31.52         111 
 31.54         109 
 31.56         111 
 31.58         106 
 31.6          122 
 31.62         98 
 31.64         90 
 31.66         114 
 31.68         92 
 31.7          97 
 31.72         87 
 31.74         102 
 31.76         101 
 31.78         99 
 31.8          106 
 31.82         108 
 31.84         105 
 31.86         118 
 31.88         125 
 31.9          99 
 31.92         139 
 31.94         111 
 31.96         131 
 31.98         136 
 32            120 
 32.02         150 
 32.04         154 
 32.06         169 
 32.08         181 
 32.1          175 
 32.12         213 
 32.14         191 
 32.16         226 
 32.18         251 
 32.2          248 
 32.22         312 
 32.24         292 
 32.26         346 
 32.28         352 
 32.3          400 
 32.32         455 
 32.34         420 
 32.36         479 
 32.38         517 
 32.4          617 
 32.42         690 
 32.44         716 
 32.46         793 
 32.48         958 
 32.5          1171 
 32.52         1492 
 32.54         1822 
 32.56         2174 
 32.58         2869 
 32.6          3661 
 32.62         4277 
 32.64         5185 
 32.66         5871 
 32.68         6536 
 32.7          6755 
 32.72         6815 
 32.74         6684 
 32.76         6422 
 32.78         5934 
 32.8          5154 
 32.82         4465 
 32.84         3803 
 32.86         3072 
 32.88         2596 
 32.9          2056 
 32.92         1653 
 32.94         1405 
 32.96         1207 
 32.98         1061 
 33            923 
 33.02         795 
 33.04         743 
 33.06         697 
 33.08         683 
 33.1          617 
 33.12         622 
 33.14         543 
 33.16         510 
 33.18         481 
 33.2          439 
 33.22         411 
 33.24         376 
 33.26         355 
 33.28         350 
 33.3          314 
 33.32         287 
 33.34         299 
 33.36         222 
 33.38         186 
 33.4          209 
 33.42         232 
 33.44         228 
 33.46         205 
 33.48         224 
 33.5          188 
 33.52         194 
 33.54         202 
 33.56         187 
 33.58         163 
 33.6          169 
 33.62         137 
 33.64         139 
 33.66         134 
 33.68         138 
 33.7          121 
 33.72         109 
 33.74         107 
 33.76         118 
 33.78         121 
 33.8          113 
 33.82         92 
 33.84         92 
 33.86         100 
 33.88         87 
 33.9          99 
 33.92         97 
 33.94         93 
 33.96         97 
 33.98         90 
 34            99 
 34.02         92 
 34.04         88 
 34.06         99 
 34.08         93 
 34.1          96 
 34.12         95 
 34.14         84 
 34.16         80 
 34.18         101 
 34.2          92 
 34.22         85 
 34.24         98 
 34.26         86 
 34.28         103 
 34.3          108 
 34.32         108 
 34.34         124 
 34.36         122 
 34.38         145 
 34.4          139 
 34.42         123 
 34.44         165 
 34.46         152 
 34.48         168 
 34.5          193 
 34.52         197 
 34.54         254 
 34.56         274 
 34.58         294 
 34.6          330 
 34.62         320 
 34.64         356 
 34.66         382 
 34.68         391 
 34.7          434 
 34.72         492 
 34.74         532 
 34.76         578 
 34.78         547 
 34.8          592 
 34.82         563 
 34.84         566 
 34.86         475 
 34.88         395 
 34.9          325 
 34.92         306 
 34.94         256 
 34.96         211 
 34.98         166 
 35            149 
 35.02         148 
 35.04         146 
 35.06         122 
 35.08         112 
 35.1          109 
 35.12         93 
 35.14         93 
 35.16         86 
 35.18         92 
 35.2          93 
 35.22         89 
 35.24         65 
 35.26         92 
 35.28         69 
 35.3          81 
 35.32         67 
 35.34         67 
 35.36         74 
 35.38         77 
 35.4          77 
 35.42         86 
 35.44         90 
 35.46         93 
 35.48         89 
 35.5          106 
 35.52         89 
 35.54         94 
 35.56         104 
 35.58         139 
 35.6          133 
 35.62         142 
 35.64         155 
 35.66         144 
 35.68         145 
 35.7          148 
 35.72         160 
 35.74         102 
 35.76         103 
 35.78         97 
 35.8          80 
 35.82         83 
 35.84         76 
 35.86         71 
 35.88         77 
 35.9          79 
 35.92         57 
 35.94         66 
 35.96         65 
 35.98         70 
 36            56 
 36.02         66 
 36.04         82 
 36.06         75 
 36.08         70 
 36.1          66 
 36.12         70 
 36.14         59 
 36.16         66 
 36.18         64 
 36.2          67 
 36.22         61 
 36.24         66 
 36.26         69 
 36.28         62 
 36.3          57 
 36.32         61 
 36.34         52 
 36.36         53 
 36.38         54 
 36.4          52 
 36.42         53 
 36.44         70 
 36.46         55 
 36.48         72 
 36.5          52 
 36.52         74 
 36.54         69 
 36.56         50 
 36.58         79 
 36.6          64 
 36.62         67 
 36.64         58 
 36.66         60 
 36.68         58 
 36.7          63 
 36.72         58 
 36.74         52 
 36.76         63 
 36.78         76 
 36.8          70 
 36.82         55 
 36.84         62 
 36.86         62 
 36.88         60 
 36.9          65 
 36.92         60 
 36.94         64 
 36.96         65 
 36.98         58 
 37            79 
 37.02         53 
 37.04         69 
 37.06         49 
 37.08         68 
 37.1          70 
 37.12         68 
 37.14         72 
 37.16         56 
 37.18         65 
 37.2          63 
 37.22         59 
 37.24         64 
 37.26         63 
 37.28         61 
 37.3          69 
 37.32         67 
 37.34         62 
 37.36         60 
 37.38         52 
 37.4          78 
 37.42         72 
 37.44         68 
 37.46         66 
 37.48         64 
 37.5          61 
 37.52         49 
 37.54         54 
 37.56         59 
 37.58         40 
 37.6          66 
 37.62         63 
 37.64         54 
 37.66         63 
 37.68         67 
 37.7          54 
 37.72         66 
 37.74         72 
 37.76         59 
 37.78         70 
 37.8          75 
 37.82         69 
 37.84         72 
 37.86         71 
 37.88         59 
 37.9          56 
 37.92         65 
 37.94         53 
 37.96         74 
 37.98         70 
 38            68 
 38.02         60 
 38.04         57 
 38.06         89 
 38.08         69 
 38.1          68 
 38.12         91 
 38.14         76 
 38.16         79 
 38.18         68 
 38.2          95 
 38.22         65 
 38.24         73 
 38.26         82 
 38.28         68 
 38.3          68 
 38.32         84 
 38.34         88 
 38.36         79 
 38.38         73 
 38.4          74 
 38.42         86 
 38.44         61 
 38.46         87 
 38.48         77 
 38.5          93 
 38.52         76 
 38.54         76 
 38.56         93 
 38.58         73 
 38.6          79 
 38.62         98 
 38.64         93 
 38.66         100 
 38.68         107 
 38.7          92 
 38.72         82 
 38.74         83 
 38.76         100 
 38.78         96 
 38.8          84 
 38.82         88 
 38.84         96 
 38.86         110 
 38.88         115 
 38.9          105 
 38.92         112 
 38.94         106 
 38.96         111 
 38.98         129 
 39            114 
 39.02         130 
 39.04         122 
 39.06         97 
 39.08         140 
 39.1          119 
 39.12         116 
 39.14         124 
 39.16         129 
 39.18         122 
 39.2          112 
 39.22         106 
 39.24         127 
 39.26         109 
 39.28         113 
 39.3          121 
 39.32         100 
 39.34         114 
 39.36         104 
 39.38         109 
 39.4          119 
 39.42         123 
 39.44         89 
 39.46         115 
 39.48         116 
 39.5          139 
 39.52         116 
 39.54         114 
 39.56         120 
 39.58         109 
 39.6          127 
 39.62         124 
 39.64         117 
 39.66         105 
 39.68         110 
 39.7          114 
 39.72         114 
 39.74         117 
 39.76         121 
 39.78         103 
 39.8          126 
 39.82         134 
 39.84         153 
 39.86         130 
 39.88         114 
 39.9          139 
 39.92         135 
 39.94         161 
 39.96         156 
 39.98         185 
 40            192 
 40.02         236 
 40.04         237 
 40.06         247 
 40.08         271 
 40.1          284 
 40.12         307 
 40.14         381 
 40.16         407 
 40.18         480 
 40.2          649 
 40.22         716 
 40.24         831 
 40.26         1007 
 40.28         1108 
 40.3          1263 
 40.32         1304 
 40.34         1374 
 40.36         1210 
 40.38         1136 
 40.4          996 
 40.42         864 
 40.44         739 
 40.46         618 
 40.48         522 
 40.5          398 
 40.52         294 
 40.54         241 
 40.56         220 
 40.58         167 
 40.6          176 
 40.62         143 
 40.64         126 
 40.66         140 
 40.68         116 
 40.7          119 
 40.72         85 
 40.74         109 
 40.76         102 
 40.78         95 
 40.8          99 
 40.82         103 
 40.84         98 
 40.86         79 
 40.88         80 
 40.9          71 
 40.92         100 
 40.94         83 
 40.96         90 
 40.98         77 
 41            83 
 41.02         67 
 41.04         70 
 41.06         79 
 41.08         75 
 41.1          80 
 41.12         104 
 41.14         83 
 41.16         71 
 41.18         84 
 41.2          101 
 41.22         73 
 41.24         97 
 41.26         93 
 41.28         84 
 41.3          87 
 41.32         87 
 41.34         103 
 41.36         90 
 41.38         101 
 41.4          96 
 41.42         95 
 41.44         91 
 41.46         101 
 41.48         90 
 41.5          87 
 41.52         106 
 41.54         93 
 41.56         77 
 41.58         79 
 41.6          84 
 41.62         88 
 41.64         89 
 41.66         107 
 41.68         94 
 41.7          105 
 41.72         91 
 41.74         118 
 41.76         118 
 41.78         120 
 41.8          124 
 41.82         165 
 41.84         183 
 41.86         192 
 41.88         216 
 41.9          240 
 41.92         280 
 41.94         278 
 41.96         263 
 41.98         274 
 42            287 
 42.02         250 
 42.04         243 
 42.06         245 
 42.08         211 
 42.1          187 
 42.12         162 
 42.14         153 
 42.16         142 
 42.18         133 
 42.2          102 
 42.22         133 
 42.24         118 
 42.26         113 
 42.28         86 
 42.3          89 
 42.32         84 
 42.34         114 
 42.36         99 
 42.38         86 
 42.4          101 
 42.42         115 
 42.44         119 
 42.46         100 
 42.48         92 
 42.5          100 
 42.52         116 
 42.54         85 
 42.56         101 
 42.58         101 
 42.6          104 
 42.62         88 
 42.64         78 
 42.66         97 
 42.68         82 
 42.7          60 
 42.72         71 
 42.74         79 
 42.76         94 
 42.78         75 
 42.8          79 
 42.82         83 
 42.84         80 
 42.86         103 
 42.88         84 
 42.9          94 
 42.92         98 
 42.94         92 
 42.96         116 
 42.98         87 
 43            107 
 43.02         119 
 43.04         133 
 43.06         136 
 43.08         149 
 43.1          142 
 43.12         151 
 43.14         145 
 43.16         165 
 43.18         132 
 43.2          160 
 43.22         159 
 43.24         173 
 43.26         186 
 43.28         207 
 43.3          189 
 43.32         216 
 43.34         167 
 43.36         191 
 43.38         166 
 43.4          150 
 43.42         152 
 43.44         133 
 43.46         135 
 43.48         125 
 43.5          109 
 43.52         95 
 43.54         79 
 43.56         74 
 43.58         88 
 43.6          75 
 43.62         100 
 43.64         92 
 43.66         99 
 43.68         110 
 43.7          108 
 43.72         97 
 43.74         120 
 43.76         106 
 43.78         102 
 43.8          107 
 43.82         103 
 43.84         84 
 43.86         95 
 43.88         95 
 43.9          84 
 43.92         94 
 43.94         74 
 43.96         103 
 43.98         78 
 44            64 
 44.02         63 
 44.04         63 
 44.06         73 
 44.08         69 
 44.1          72 
 44.12         70 
 44.14         80 
 44.16         61 
 44.18         70 
 44.2          62 
 44.22         73 
 44.24         86 
 44.26         69 
 44.28         78 
 44.3          62 
 44.32         75 
 44.34         69 
 44.36         55 
 44.38         80 
 44.4          68 
 44.42         66 
 44.44         72 
 44.46         96 
 44.48         70 
 44.5          71 
 44.52         83 
 44.54         77 
 44.56         59 
 44.58         67 
 44.6          73 
 44.62         66 
 44.64         88 
 44.66         76 
 44.68         83 
 44.7          74 
 44.72         61 
 44.74         84 
 44.76         73 
 44.78         78 
 44.8          66 
 44.82         80 
 44.84         82 
 44.86         60 
 44.88         63 
 44.9          71 
 44.92         74 
 44.94         69 
 44.96         76 
 44.98         62 
 45            84 
 45.02         67 
 45.04         86 
 45.06         75 
 45.08         61 
 45.1          75 
 45.12         80 
 45.14         73 
 45.16         89 
 45.18         76 
 45.2          98 
 45.22         70 
 45.24         65 
 45.26         84 
 45.28         82 
 45.3          86 
 45.32         92 
 45.34         82 
 45.36         76 
 45.38         86 
 45.4          75 
 45.42         81 
 45.44         90 
 45.46         90 
 45.48         104 
 45.5          69 
 45.52         95 
 45.54         95 
 45.56         92 
 45.58         81 
 45.6          92 
 45.62         83 
 45.64         68 
 45.66         69 
 45.68         81 
 45.7          89 
 45.72         82 
 45.74         76 
 45.76         67 
 45.78         85 
 45.8          69 
 45.82         74 
 45.84         78 
 45.86         70 
 45.88         71 
 45.9          77 
 45.92         79 
 45.94         74 
 45.96         84 
 45.98         82 
 46            89 
 46.02         71 
 46.04         96 
 46.06         84 
 46.08         89 
 46.1          105 
 46.12         103 
 46.14         91 
 46.16         96 
 46.18         89 
 46.2          86 
 46.22         107 
 46.24         115 
 46.26         121 
 46.28         96 
 46.3          104 
 46.32         126 
 46.34         147 
 46.36         146 
 46.38         158 
 46.4          192 
 46.42         178 
 46.44         198 
 46.46         238 
 46.48         262 
 46.5          296 
 46.52         345 
 46.54         359 
 46.56         431 
 46.58         457 
 46.6          514 
 46.62         624 
 46.64         611 
 46.66         790 
 46.68         929 
 46.7          914 
 46.72         1038 
 46.74         1051 
 46.76         1041 
 46.78         1081 
 46.8          1026 
 46.82         1050 
 46.84         1119 
 46.86         1111 
 46.88         1235 
 46.9          1350 
 46.92         1508 
 46.94         1747 
 46.96         1963 
 46.98         2139 
 47            2258 
 47.02         2287 
 47.04         2127 
 47.06         2137 
 47.08         1981 
 47.1          1887 
 47.12         1626 
 47.14         1498 
 47.16         1327 
 47.18         1138 
 47.2          930 
 47.22         813 
 47.24         638 
 47.26         493 
 47.28         468 
 47.3          390 
 47.32         293 
 47.34         263 
 47.36         254 
 47.38         215 
 47.4          236 
 47.42         188 
 47.44         182 
 47.46         171 
 47.48         155 
 47.5          124 
 47.52         123 
 47.54         131 
 47.56         139 
 47.58         132 
 47.6          129 
 47.62         119 
 47.64         138 
 47.66         106 
 47.68         114 
 47.7          100 
 47.72         102 
 47.74         107 
 47.76         117 
 47.78         118 
 47.8          127 
 47.82         116 
 47.84         129 
 47.86         117 
 47.88         130 
 47.9          123 
 47.92         105 
 47.94         135 
 47.96         105 
 47.98         150 
 48            127 
 48.02         137 
 48.04         120 
 48.06         161 
 48.08         152 
 48.1          161 
 48.12         174 
 48.14         175 
 48.16         187 
 48.18         219 
 48.2          228 
 48.22         261 
 48.24         305 
 48.26         330 
 48.28         395 
 48.3          439 
 48.32         454 
 48.34         528 
 48.36         557 
 48.38         560 
 48.4          552 
 48.42         591 
 48.44         515 
 48.46         544 
 48.48         520 
 48.5          477 
 48.52         454 
 48.54         463 
 48.56         429 
 48.58         402 
 48.6          329 
 48.62         309 
 48.64         304 
 48.66         258 
 48.68         220 
 48.7          210 
 48.72         170 
 48.74         164 
 48.76         118 
 48.78         128 
 48.8          105 
 48.82         99 
 48.84         94 
 48.86         93 
 48.88         110 
 48.9          101 
 48.92         98 
 48.94         79 
 48.96         89 
 48.98         105 
 49            71 
 49.02         67 
 49.04         95 
 49.06         81 
 49.08         78 
 49.1          85 
 49.12         78 
 49.14         69 
 49.16         76 
 49.18         70 
 49.2          69 
 49.22         82 
 49.24         71 
 49.26         81 
 49.28         84 
 49.3          69 
 49.32         71 
 49.34         73 
 49.36         66 
 49.38         75 
 49.4          78 
 49.42         68 
 49.44         85 
 49.46         87 
 49.48         81 
 49.5          77 
 49.52         71 
 49.54         78 
 49.56         78 
 49.58         63 
 49.6          69 
 49.62         65 
 49.64         80 
 49.66         74 
 49.68         79 
 49.7          60 
 49.72         64 
 49.74         65 
 49.76         71 
 49.78         44 
 49.8          81 
 49.82         63 
 49.84         72 
 49.86         68 
 49.88         63 
 49.9          62 
 49.92         60 
 49.94         67 
 49.96         63 
 49.98         51 
 50            67 
 50.02         61 
 50.04         63 
 50.06         64 
 50.08         67 
 50.1          50 
 50.12         63 
 50.14         75 
 50.16         66 
 50.18         56 
 50.2          60 
 50.22         60 
 50.24         61 
 50.26         69 
 50.28         55 
 50.3          58 
 50.32         59 
 50.34         67 
 50.36         56 
 50.38         59 
 50.4          74 
 50.42         61 
 50.44         56 
 50.46         72 
 50.48         60 
 50.5          54 
 50.52         65 
 50.54         63 
 50.56         79 
 50.58         55 
 50.6          64 
 50.62         56 
 50.64         58 
 50.66         58 
 50.68         63 
 50.7          62 
 50.72         55 
 50.74         61 
 50.76         59 
 50.78         48 
 50.8          66 
 50.82         72 
 50.84         66 
 50.86         66 
 50.88         48 
 50.9          68 
 50.92         63 
 50.94         57 
 50.96         63 
 50.98         61 
 51            57 
 51.02         62 
 51.04         54 
 51.06         48 
 51.08         55 
 51.1          54 
 51.12         61 
 51.14         48 
 51.16         64 
 51.18         57 
 51.2          57 
 51.22         76 
 51.24         76 
 51.26         63 
 51.28         78 
 51.3          51 
 51.32         62 
 51.34         57 
 51.36         74 
 51.38         64 
 51.4          78 
 51.42         71 
 51.44         78 
 51.46         61 
 51.48         67 
 51.5          64 
 51.52         73 
 51.54         86 
 51.56         89 
 51.58         89 
 51.6          86 
 51.62         78 
 51.64         91 
 51.66         90 
 51.68         77 
 51.7          104 
 51.72         87 
 51.74         107 
 51.76         79 
 51.78         83 
 51.8          89 
 51.82         84 
 51.84         88 
 51.86         82 
 51.88         70 
 51.9          78 
 51.92         88 
 51.94         85 
 51.96         75 
 51.98         89 
 52            72 
 52.02         92 
 52.04         68 
 52.06         65 
 52.08         62 
 52.1          79 
 52.12         77 
 52.14         75 
 52.16         90 
 52.18         76 
 52.2          69 
 52.22         72 
 52.24         76 
 52.26         61 
 52.28         72 
 52.3          85 
 52.32         74 
 52.34         62 
 52.36         71 
 52.38         58 
 52.4          82 
 52.42         78 
 52.44         92 
 52.46         85 
 52.48         76 
 52.5          74 
 52.52         80 
 52.54         77 
 52.56         80 
 52.58         89 
 52.6          85 
 52.62         94 
 52.64         88 
 52.66         117 
 52.68         117 
 52.7          109 
 52.72         98 
 52.74         104 
 52.76         130 
 52.78         111 
 52.8          119 
 52.82         123 
 52.84         117 
 52.86         148 
 52.88         136 
 52.9          139 
 52.92         151 
 52.94         142 
 52.96         116 
 52.98         117 
 53            122 
 53.02         104 
 53.04         101 
 53.06         117 
 53.08         108 
 53.1          112 
 53.12         108 
 53.14         103 
 53.16         85 
 53.18         100 
 53.2          76 
 53.22         87 
 53.24         98 
 53.26         81 
 53.28         76 
 53.3          76 
 53.32         65 
 53.34         80 
 53.36         74 
 53.38         74 
 53.4          97 
 53.42         92 
 53.44         84 
 53.46         82 
 53.48         72 
 53.5          77 
 53.52         77 
 53.54         82 
 53.56         70 
 53.58         92 
 53.6          91 
 53.62         77 
 53.64         94 
 53.66         80 
 53.68         80 
 53.7          93 
 53.72         88 
 53.74         84 
 53.76         89 
 53.78         82 
 53.8          80 
 53.82         86 
 53.84         76 
 53.86         79 
 53.88         87 
 53.9          89 
 53.92         95 
 53.94         95 
 53.96         92 
 53.98         90 
 54            116 
 54.02         119 
 54.04         107 
 54.06         136 
 54.08         139 
 54.1          150 
 54.12         133 
 54.14         160 
 54.16         170 
 54.18         185 
 54.2          188 
 54.22         223 
 54.24         265 
 54.26         299 
 54.28         324 
 54.3          320 
 54.32         402 
 54.34         411 
 54.36         399 
 54.38         379 
 54.4          350 
 54.42         316 
 54.44         302 
 54.46         320 
 54.48         308 
 54.5          260 
 54.52         229 
 54.54         220 
 54.56         195 
 54.58         169 
 54.6          149 
 54.62         135 
 54.64         127 
 54.66         128 
 54.68         118 
 54.7          116 
 54.72         120 
 54.74         102 
 54.76         89 
 54.78         114 
 54.8          102 
 54.82         92 
 54.84         97 
 54.86         100 
 54.88         97 
 54.9          96 
 54.92         114 
 54.94         86 
 54.96         99 
 54.98         108 
 55            111 
 55.02         98 
 55.04         101 
 55.06         100 
 55.08         114 
 55.1          111 
 55.12         113 
 55.14         107 
 55.16         98 
 55.18         110 
 55.2          115 
 55.22         103 
 55.24         82 
 55.26         92 
 55.28         92 
 55.3          84 
 55.32         85 
 55.34         92 
 55.36         97 
 55.38         66 
 55.4          91 
 55.42         91 
 55.44         105 
 55.46         88 
 55.48         71 
 55.5          82 
 55.52         68 
 55.54         67 
 55.56         73 
 55.58         81 
 55.6          75 
 55.62         89 
 55.64         71 
 55.66         82 
 55.68         72 
 55.7          86 
 55.72         87 
 55.74         89 
 55.76         71 
 55.78         68 
 55.8          86 
 55.82         87 
 55.84         85 
 55.86         91 
 55.88         71 
 55.9          82 
 55.92         91 
 55.94         84 
 55.96         102 
 55.98         109 
 56            101 
 56.02         100 
 56.04         121 
 56.06         107 
 56.08         112 
 56.1          126 
 56.12         136 
 56.14         109 
 56.16         108 
 56.18         143 
 56.2          141 
 56.22         129 
 56.24         106 
 56.26         120 
 56.28         116 
 56.3          107 
 56.32         108 
 56.34         100 
 56.36         108 
 56.38         110 
 56.4          103 
 56.42         100 
 56.44         102 
 56.46         94 
 56.48         96 
 56.5          104 
 56.52         80 
 56.54         83 
 56.56         103 
 56.58         77 
 56.6          79 
 56.62         83 
 56.64         99 
 56.66         83 
 56.68         82 
 56.7          74 
 56.72         90 
 56.74         78 
 56.76         77 
 56.78         85 
 56.8          68 
 56.82         76 
 56.84         73 
 56.86         76 
 56.88         87 
 56.9          81 
 56.92         80 
 56.94         77 
 56.96         82 
 56.98         76 
 57            73 
 57.02         70 
 57.04         83 
 57.06         76 
 57.08         82 
 57.1          81 
 57.12         86 
 57.14         90 
 57.16         89 
 57.18         97 
 57.2          110 
 57.22         97 
 57.24         120 
 57.26         125 
 57.28         100 
 57.3          104 
 57.32         94 
 57.34         97 
 57.36         92 
 57.38         93 
 57.4          90 
 57.42         79 
 57.44         83 
 57.46         94 
 57.48         101 
 57.5          102 
 57.52         116 
 57.54         106 
 57.56         92 
 57.58         98 
 57.6          121 
 57.62         109 
 57.64         111 
 57.66         121 
 57.68         143 
 57.7          131 
 57.72         143 
 57.74         149 
 57.76         144 
 57.78         162 
 57.8          175 
 57.82         163 
 57.84         164 
 57.86         192 
 57.88         173 
 57.9          193 
 57.92         206 
 57.94         186 
 57.96         208 
 57.98         228 
 58            274 
 58.02         293 
 58.04         373 
 58.06         390 
 58.08         493 
 58.1          549 
 58.12         621 
 58.14         729 
 58.16         833 
 58.18         956 
 58.2          1027 
 58.22         1126 
 58.24         1158 
 58.26         1189 
 58.28         1369 
 58.3          1491 
 58.32         1630 
 58.34         1817 
 58.36         2031 
 58.38         1981 
 58.4          2035 
 58.42         1954 
 58.44         1747 
 58.46         1557 
 58.48         1446 
 58.5          1334 
 58.52         1329 
 58.54         1138 
 58.56         1124 
 58.58         1036 
 58.6          847 
 58.62         732 
 58.64         596 
 58.66         513 
 58.68         472 
 58.7          413 
 58.72         350 
 58.74         333 
 58.76         340 
 58.78         304 
 58.8          278 
 58.82         294 
 58.84         249 
 58.86         253 
 58.88         204 
 58.9          204 
 58.92         215 
 58.94         193 
 58.96         196 
 58.98         173 
 59            186 
 59.02         183 
 59.04         165 
 59.06         144 
 59.08         127 
 59.1          114 
 59.12         115 
 59.14         107 
 59.16         106 
 59.18         91 
 59.2          117 
 59.22         101 
 59.24         103 
 59.26         98 
 59.28         98 
 59.3          110 
 59.32         103 
 59.34         94 
 59.36         89 
 59.38         117 
 59.4          112 
 59.42         101 
 59.44         112 
 59.46         111 
 59.48         115 
 59.5          121 
 59.52         130 
 59.54         146 
 59.56         151 
 59.58         155 
 59.6          176 
 59.62         177 
 59.64         176 
 59.66         190 
 59.68         152 
 59.7          180 
 59.72         142 
 59.74         147 
 59.76         144 
 59.78         135 
 59.8          125 
 59.82         117 
 59.84         104 
 59.86         112 
 59.88         99 
 59.9          78 
 59.92         83 
 59.94         89 
 59.96         68 
 59.98         89 
 60            67 
 60.02         65 
 60.04         68 
 60.06         65 
 60.08         50 
 60.1          63 
 60.12         76 
 60.14         57 
 60.16         53 
 60.18         43 
 60.2          61 
 60.22         48 
 60.24         59 
 60.26         61 
 60.28         48 
 60.3          60 
 60.32         52 
 60.34         54 
 60.36         48 
 60.38         48 
 60.4          53 
 60.42         42 
 60.44         43 
 60.46         41 
 60.48         45 
 60.5          43 
 60.52         49 
 60.54         64 
 60.56         37 
 60.58         44 
 60.6          38 
 60.62         44 
 60.64         45 
 60.66         58 
 60.68         44 
 60.7          54 
 60.72         47 
 60.74         46 
 60.76         49 
 60.78         58 
 60.8          35 
 60.82         42 
 60.84         69 
 60.86         37 
 60.88         30 
 60.9          37 
 60.92         51 
 60.94         47 
 60.96         43 
 60.98         60 
 61            62 
 61.02         48 
 61.04         41 
 61.06         48 
 61.08         48 
 61.1          61 
 61.12         40 
 61.14         40 
 61.16         52 
 61.18         52 
 61.2          38 
 61.22         57 
 61.24         59 
 61.26         57 
 61.28         59 
 61.3          59 
 61.32         63 
 61.34         69 
 61.36         49 
 61.38         57 
 61.4          54 
 61.42         52 
 61.44         33 
 61.46         59 
 61.48         59 
 61.5          43 
 61.52         50 
 61.54         54 
 61.56         43 
 61.58         40 
 61.6          46 
 61.62         35 
 61.64         42 
 61.66         48 
 61.68         32 
 61.7          47 
 61.72         49 
 61.74         58 
 61.76         50 
 61.78         47 
 61.8          35 
 61.82         50 
 61.84         46 
 61.86         55 
 61.88         36 
 61.9          43 
 61.92         41 
 61.94         57 
 61.96         55 
 61.98         48 
 62            38 
 62.02         48 
 62.04         38 
 62.06         54 
 62.08         48 
 62.1          55 
 62.12         45 
 62.14         43 
 62.16         47 
 62.18         44 
 62.2          50 
 62.22         60 
 62.24         50 
 62.26         41 
 62.28         56 
 62.3          47 
 62.32         62 
 62.34         53 
 62.36         41 
 62.38         57 
 62.4          65 
 62.42         59 
 62.44         43 
 62.46         59 
 62.48         57 
 62.5          58 
 62.52         47 
 62.54         51 
 62.56         48 
 62.58         52 
 62.6          56 
 62.62         42 
 62.64         60 
 62.66         53 
 62.68         38 
 62.7          54 
 62.72         58 
 62.74         65 
 62.76         54 
 62.78         88 
 62.8          69 
 62.82         85 
 62.84         110 
 62.86         103 
 62.88         103 
 62.9          98 
 62.92         98 
 62.94         80 
 62.96         96 
 62.98         77 
 63            79 
 63.02         89 
 63.04         68 
 63.06         79 
 63.08         84 
 63.1          60 
 63.12         55 
 63.14         54 
 63.16         44 
 63.18         53 
 63.2          56 
 63.22         53 
 63.24         53 
 63.26         60 
 63.28         50 
 63.3          47 
 63.32         46 
 63.34         48 
 63.36         41 
 63.38         42 
 63.4          52 
 63.42         47 
 63.44         43 
 63.46         46 
 63.48         58 
 63.5          54 
 63.52         64 
 63.54         58 
 63.56         48 
 63.58         50 
 63.6          42 
 63.62         53 
 63.64         53 
 63.66         59 
 63.68         51 
 63.7          62 
 63.72         51 
 63.74         54 
 63.76         56 
 63.78         46 
 63.8          65 
 63.82         49 
 63.84         58 
 63.86         56 
 63.88         55 
 63.9          57 
 63.92         68 
 63.94         54 
 63.96         39 
 63.98         44 
 64            64 
 64.02         59 
 64.04         63 
 64.06         45 
 64.08         71 
 64.1          63 
 64.12         59 
 64.14         59 
 64.16         74 
 64.18         65 
 64.2          71 
 64.22         73 
 64.24         74 
 64.26         92 
 64.28         83 
 64.3          73 
 64.32         74 
 64.34         112 
 64.36         109 
 64.38         107 
 64.4          126 
 64.42         115 
 64.44         148 
 64.46         173 
 64.48         175 
 64.5          182 
 64.52         206 
 64.54         210 
 64.56         212 
 64.58         205 
 64.6          179 
 64.62         198 
 64.64         206 
 64.66         199 
 64.68         228 
 64.7          222 
 64.72         226 
 64.74         239 
 64.76         238 
 64.78         204 
 64.8          213 
 64.82         201 
 64.84         173 
 64.86         161 
 64.88         159 
 64.9          159 
 64.92         145 
 64.94         138 
 64.96         144 
 64.98         128 
 65            104 
 65.02         120 
 65.04         91 
 65.06         106 
 65.08         89 
 65.1          84 
 65.12         78 
 65.14         89 
 65.16         97 
 65.18         86 
 65.2          76 
 65.22         78 
 65.24         97 
 65.26         85 
 65.28         76 
 65.3          92 
 65.32         95 
 65.34         87 
 65.36         86 
 65.38         76 
 65.4          81 
 65.42         74 
 65.44         67 
 65.46         69 
 65.48         87 
 65.5          80 
 65.52         82 
 65.54         59 
 65.56         60 
 65.58         54 
 65.6          73 
 65.62         68 
 65.64         47 
 65.66         57 
 65.68         46 
 65.7          53 
 65.72         63 
 65.74         56 
 65.76         59 
 65.78         50 
 65.8          50 
 65.82         55 
 65.84         57 
 65.86         39 
 65.88         60 
 65.9          65 
 65.92         49 
 65.94         62 
 65.96         68 
 65.98         56 
 66            61 
 66.02         68 
 66.04         60 
 66.06         65 
 66.08         56 
 66.1          79 
 66.12         74 
 66.14         71 
 66.16         69 
 66.18         60 
 66.2          59 
 66.22         57 
 66.24         44 
 66.26         64 
 66.28         57 
 66.3          61 
 66.32         57 
 66.34         72 
 66.36         46 
 66.38         66 
 66.4          62 
 66.42         60 
 66.44         43 
 66.46         44 
 66.48         57 
 66.5          53 
 66.52         55 
 66.54         59 
 66.56         61 
 66.58         50 
 66.6          50 
 66.62         63 
 66.64         48 
 66.66         57 
 66.68         57 
 66.7          62 
 66.72         41 
 66.74         60 
 66.76         67 
 66.78         71 
 66.8          53 
 66.82         54 
 66.84         39 
 66.86         63 
 66.88         66 
 66.9          57 
 66.92         79 
 66.94         63 
 66.96         71 
 66.98         59 
 67            51 
 67.02         53 
 67.04         68 
 67.06         67 
 67.08         60 
 67.1          53 
 67.12         55 
 67.14         67 
 67.16         74 
 67.18         56 
 67.2          68 
 67.22         61 
 67.24         51 
 67.26         54 
 67.28         60 
 67.3          60 
 67.32         57 
 67.34         58 
 67.36         61 
 67.38         56 
 67.4          56 
 67.42         55 
 67.44         61 
 67.46         52 
 67.48         46 
 67.5          64 
 67.52         68 
 67.54         62 
 67.56         68 
 67.58         81 
 67.6          77 
 67.62         74 
 67.64         45 
 67.66         71 
 67.68         57 
 67.7          78 
 67.72         64 
 67.74         69 
 67.76         71 
 67.78         68 
 67.8          74 
 67.82         65 
 67.84         59 
 67.86         71 
 67.88         72 
 67.9          72 
 67.92         79 
 67.94         86 
 67.96         81 
 67.98         91 
 68            86 
 68.02         106 
 68.04         109 
 68.06         121 
 68.08         122 
 68.1          154 
 68.12         125 
 68.14         155 
 68.16         148 
 68.18         192 
 68.2          208 
 68.22         223 
 68.24         283 
 68.26         315 
 68.28         390 
 68.3          472 
 68.32         574 
 68.34         652 
 68.36         717 
 68.38         740 
 68.4          805 
 68.42         814 
 68.44         765 
 68.46         744 
 68.48         735 
 68.5          727 
 68.52         780 
 68.54         807 
 68.56         870 
 68.58         876 
 68.6          924 
 68.62         894 
 68.64         778 
 68.66         721 
 68.68         676 
 68.7          588 
 68.72         494 
 68.74         491 
 68.76         489 
 68.78         439 
 68.8          466 
 68.82         403 
 68.84         360 
 68.86         332 
 68.88         288 
 68.9          274 
 68.92         196 
 68.94         230 
 68.96         186 
 68.98         165 
 69            137 
 69.02         138 
 69.04         132 
 69.06         123 
 69.08         119 
 69.1          120 
 69.12         118 
 69.14         120 
 69.16         104 
 69.18         104 
 69.2          107 
 69.22         89 
 69.24         96 
 69.26         91 
 69.28         104 
 69.3          76 
 69.32         94 
 69.34         84 
 69.36         85 
 69.38         92 
 69.4          91 
 69.42         77 
 69.44         87 
 69.46         93 
 69.48         88 
 69.5          85 
 69.52         87 
 69.54         87 
 69.56         69 
 69.58         92 
 69.6          87 
 69.62         83 
 69.64         80 
 69.66         87 
 69.68         89 
 69.7          86 
 69.72         98 
 69.74         97 
 69.76         101 
 69.78         104 
 69.8          121 
 69.82         117 
 69.84         106 
 69.86         123 
 69.88         96 
 69.9          98 
 69.92         87 
 69.94         74 
 69.96         83 
 69.98         81 
 70            76 
 70.02         98 
 70.04         81 
 70.06         78 
 70.08         74 
 70.1          54 
 70.12         67 
 70.14         49 
 70.16         61 
 70.18         59 
 70.2          55 
 70.22         72 
 70.24         45 
 70.26         48 
 70.28         50 
 70.3          35 
 70.32         57 
 70.34         39 
 70.36         47 
 70.38         47 
 70.4          39 
 70.42         41 
 70.44         44 
 70.46         34 
 70.48         51 
 70.5          35 
 70.52         43 
 70.54         45 
 70.56         43 
 70.58         35 
 70.6          45 
 70.62         43 
 70.64         35 
 70.66         40 
 70.68         50 
 70.7          33 
 70.72         35 
 70.74         47 
 70.76         33 
 70.78         38 
 70.8          35 
 70.82         46 
 70.84         40 
 70.86         33 
 70.88         33 
 70.9          42 
 70.92         54 
 70.94         50 
 70.96         38 
 70.98         35 
 71            32 
 71.02         40 
 71.04         43 
 71.06         43 
 71.08         39 
 71.1          39 
 71.12         45 
 71.14         47 
 71.16         51 
 71.18         38 
 71.2          33 
 71.22         37 
 71.24         44 
 71.26         42 
 71.28         33 
 71.3          34 
 71.32         44 
 71.34         34 
 71.36         45 
 71.38         35 
 71.4          47 
 71.42         42 
 71.44         44 
 71.46         35 
 71.48         33 
 71.5          45 
 71.52         48 
 71.54         42 
 71.56         47 
 71.58         33 
 71.6          51 
 71.62         33 
 71.64         42 
 71.66         37 
 71.68         39 
 71.7          40 
 71.72         39 
 71.74         42 
 71.76         43 
 71.78         41 
 71.8          44 
 71.82         45 
 71.84         49 
 71.86         42 
 71.88         47 
 71.9          36 
 71.92         41 
 71.94         32 
 71.96         43 
 71.98         43 
 72            51 
 72.02         44 
 72.04         39 
 72.06         50 
 72.08         36 
 72.1          57 
 72.12         47 
 72.14         43 
 72.16         42 
 72.18         40 
 72.2          42 
 72.22         53 
 72.24         43 
 72.26         43 
 72.28         46 
 72.3          40 
 72.32         54 
 72.34         44 
 72.36         50 
 72.38         40 
 72.4          66 
 72.42         51 
 72.44         56 
 72.46         52 
 72.48         57 
 72.5          45 
 72.52         44 
 72.54         54 
 72.56         45 
 72.58         39 
 72.6          58 
 72.62         50 
 72.64         59 
 72.66         46 
 72.68         58 
 72.7          55 
 72.72         59 
 72.74         48 
 72.76         69 
 72.78         54 
 72.8          60 
 72.82         69 
 72.84         61 
 72.86         66 
 72.88         60 
 72.9          77 
 72.92         54 
 72.94         71 
 72.96         56 
 72.98         68 
 73            54 
 73.02         60 
 73.04         73 
 73.06         58 
 73.08         65 
 73.1          66 
 73.12         87 
 73.14         69 
 73.16         81 
 73.18         89 
 73.2          112 
 73.22         83 
 73.24         97 
 73.26         82 
 73.28         71 
 73.3          91 
 73.32         92 
 73.34         78 
 73.36         84 
 73.38         91 
 73.4          96 
 73.42         95 
 73.44         75 
 73.46         100 
 73.48         70 
 73.5          96 
 73.52         66 
 73.54         74 
 73.56         62 
 73.58         60 
 73.6          81 
 73.62         61 
 73.64         70 
 73.66         51 
 73.68         60 
 73.7          56 
 73.72         64 
 73.74         50 
 73.76         63 
 73.78         61 
 73.8          53 
 73.82         47 
 73.84         59 
 73.86         47 
 73.88         62 
 73.9          53 
 73.92         60 
 73.93999      50 
 73.96         51 
 73.98         62 
 74            55 
 74.02         45 
 74.04         68 
 74.06         48 
 74.08         55 
 74.1          67 
 74.12         64 
 74.14         49 
 74.16         54 
 74.18         56 
 74.2          53 
 74.22         59 
 74.24         51 
 74.26         52 
 74.28         53 
 74.3          53 
 74.32         54 
 74.34         52 
 74.36         58 
 74.38         58 
 74.4          62 
 74.42         70 
 74.43999      86 
 74.46         83 
 74.48         74 
 74.5          83 
 74.52         92 
 74.54         105 
 74.56         99 
 74.58         84 
 74.6          98 
 74.62         103 
 74.64         98 
 74.66         91 
 74.68         84 
 74.7          92 
 74.72         72 
 74.74         83 
 74.76         91 
 74.78         82 
 74.8          66 
 74.82         67 
 74.84         66 
 74.86         67 
 74.88         81 
 74.9          72 
 74.92         59 
 74.93999      60 
 74.96         52 
 74.98         48 
 75            51 
