LLTO 2,5 nicht kalziniert  Original Data
 3151 
 12            168 
 12.02         158 
 12.04         159 
 12.06         145 
 12.08         153 
 12.1          166 
 12.12         173 
 12.14         166 
 12.16         163 
 12.18         163 
 12.2          195 
 12.22         164 
 12.24         170 
 12.26         149 
 12.28         157 
 12.3          170 
 12.32         175 
 12.34         140 
 12.36         155 
 12.38         160 
 12.4          159 
 12.42         174 
 12.44         160 
 12.46         178 
 12.48         154 
 12.5          147 
 12.52         156 
 12.54         156 
 12.56         170 
 12.58         161 
 12.6          145 
 12.62         136 
 12.64         139 
 12.66         150 
 12.68         144 
 12.7          143 
 12.72         157 
 12.74         168 
 12.76         145 
 12.78         152 
 12.8          164 
 12.82         135 
 12.84         157 
 12.86         167 
 12.88         142 
 12.9          142 
 12.92         154 
 12.94         150 
 12.96         149 
 12.98         131 
 13            162 
 13.02         138 
 13.04         179 
 13.06         127 
 13.08         130 
 13.1          140 
 13.12         162 
 13.14         127 
 13.16         138 
 13.18         152 
 13.2          155 
 13.22         149 
 13.24         128 
 13.26         135 
 13.28         161 
 13.3          158 
 13.32         152 
 13.34         149 
 13.36         139 
 13.38         125 
 13.4          152 
 13.42         142 
 13.44         145 
 13.46         131 
 13.48         140 
 13.5          157 
 13.52         148 
 13.54         121 
 13.56         127 
 13.58         124 
 13.6          143 
 13.62         137 
 13.64         143 
 13.66         129 
 13.68         126 
 13.7          138 
 13.72         129 
 13.74         109 
 13.76         140 
 13.78         121 
 13.8          136 
 13.82         141 
 13.84         126 
 13.86         136 
 13.88         162 
 13.9          134 
 13.92         140 
 13.94         128 
 13.96         150 
 13.98         128 
 14            139 
 14.02         139 
 14.04         150 
 14.06         109 
 14.08         136 
 14.1          164 
 14.12         140 
 14.14         154 
 14.16         129 
 14.18         153 
 14.2          150 
 14.22         141 
 14.24         134 
 14.26         116 
 14.28         127 
 14.3          138 
 14.32         139 
 14.34         135 
 14.36         125 
 14.38         115 
 14.4          145 
 14.42         128 
 14.44         143 
 14.46         120 
 14.48         137 
 14.5          136 
 14.52         148 
 14.54         110 
 14.56         126 
 14.58         118 
 14.6          117 
 14.62         130 
 14.64         130 
 14.66         153 
 14.68         129 
 14.7          139 
 14.72         131 
 14.74         135 
 14.76         130 
 14.78         120 
 14.8          133 
 14.82         138 
 14.84         152 
 14.86         153 
 14.88         165 
 14.9          134 
 14.92         131 
 14.94         137 
 14.96         129 
 14.98         144 
 15            157 
 15.02         151 
 15.04         144 
 15.06         145 
 15.08         154 
 15.1          159 
 15.12         179 
 15.14         149 
 15.16         156 
 15.18         179 
 15.2          204 
 15.22         174 
 15.24         178 
 15.26         179 
 15.28         228 
 15.3          207 
 15.32         207 
 15.34         264 
 15.36         259 
 15.38         270 
 15.4          272 
 15.42         276 
 15.44         305 
 15.46         341 
 15.48         298 
 15.5          343 
 15.52         378 
 15.54         377 
 15.56         432 
 15.58         480 
 15.6          495 
 15.62         499 
 15.64         577 
 15.66         620 
 15.68         620 
 15.7          717 
 15.72         709 
 15.74         746 
 15.76         804 
 15.78         828 
 15.8          834 
 15.82         806 
 15.84         878 
 15.86         860 
 15.88         777 
 15.9          813 
 15.92         743 
 15.94         671 
 15.96         652 
 15.98         547 
 16            527 
 16.02         495 
 16.04         447 
 16.06         425 
 16.08         360 
 16.1          308 
 16.12         284 
 16.14         270 
 16.16         260 
 16.18         265 
 16.2          267 
 16.22         200 
 16.24         224 
 16.26         222 
 16.28         211 
 16.3          218 
 16.32         197 
 16.34         162 
 16.36         182 
 16.38         158 
 16.4          151 
 16.42         165 
 16.44         165 
 16.46         134 
 16.48         117 
 16.5          116 
 16.52         119 
 16.54         144 
 16.56         127 
 16.58         132 
 16.6          117 
 16.62         130 
 16.64         116 
 16.66         106 
 16.68         102 
 16.7          113 
 16.72         117 
 16.74         103 
 16.76         105 
 16.78         104 
 16.8          117 
 16.82         101 
 16.84         100 
 16.86         95 
 16.88         100 
 16.9          113 
 16.92         92 
 16.94         108 
 16.96         98 
 16.98         122 
 17            81 
 17.02         107 
 17.04         93 
 17.06         80 
 17.08         99 
 17.1          102 
 17.12         85 
 17.14         91 
 17.16         99 
 17.18         85 
 17.2          101 
 17.22         91 
 17.24         82 
 17.26         75 
 17.28         109 
 17.3          94 
 17.32         83 
 17.34         90 
 17.36         88 
 17.38         89 
 17.4          87 
 17.42         93 
 17.44         93 
 17.46         100 
 17.48         88 
 17.5          92 
 17.52         94 
 17.54         81 
 17.56         104 
 17.58         80 
 17.6          92 
 17.62         74 
 17.64         80 
 17.66         73 
 17.68         90 
 17.7          94 
 17.72         88 
 17.74         88 
 17.76         85 
 17.78         86 
 17.8          75 
 17.82         90 
 17.84         74 
 17.86         60 
 17.88         73 
 17.9          74 
 17.92         63 
 17.94         96 
 17.96         91 
 17.98         80 
 18            82 
 18.02         64 
 18.04         76 
 18.06         79 
 18.08         62 
 18.1          80 
 18.12         82 
 18.14         77 
 18.16         62 
 18.18         80 
 18.2          75 
 18.22         79 
 18.24         77 
 18.26         73 
 18.28         85 
 18.3          77 
 18.32         70 
 18.34         74 
 18.36         81 
 18.38         86 
 18.4          75 
 18.42         73 
 18.44         79 
 18.46         73 
 18.48         67 
 18.5          75 
 18.52         76 
 18.54         82 
 18.56         76 
 18.58         70 
 18.6          53 
 18.62         67 
 18.64         82 
 18.66         60 
 18.68         68 
 18.7          84 
 18.72         71 
 18.74         66 
 18.76         96 
 18.78         60 
 18.8          78 
 18.82         79 
 18.84         75 
 18.86         68 
 18.88         77 
 18.9          63 
 18.92         73 
 18.94         54 
 18.96         80 
 18.98         77 
 19            76 
 19.02         62 
 19.04         70 
 19.06         69 
 19.08         57 
 19.1          67 
 19.12         72 
 19.14         56 
 19.16         81 
 19.18         71 
 19.2          65 
 19.22         68 
 19.24         71 
 19.26         72 
 19.28         77 
 19.3          68 
 19.32         63 
 19.34         70 
 19.36         68 
 19.38         68 
 19.4          64 
 19.42         67 
 19.44         73 
 19.46         72 
 19.48         67 
 19.5          65 
 19.52         56 
 19.54         77 
 19.56         72 
 19.58         49 
 19.6          66 
 19.62         65 
 19.64         79 
 19.66         75 
 19.68         57 
 19.7          67 
 19.72         74 
 19.74         56 
 19.76         60 
 19.78         59 
 19.8          57 
 19.82         59 
 19.84         53 
 19.86         69 
 19.88         69 
 19.9          61 
 19.92         72 
 19.94         59 
 19.96         58 
 19.98         65 
 20            75 
 20.02         46 
 20.04         76 
 20.06         67 
 20.08         53 
 20.1          68 
 20.12         64 
 20.14         55 
 20.16         58 
 20.18         54 
 20.2          65 
 20.22         79 
 20.24         62 
 20.26         67 
 20.28         69 
 20.3          64 
 20.32         78 
 20.34         72 
 20.36         58 
 20.38         60 
 20.4          50 
 20.42         50 
 20.44         74 
 20.46         67 
 20.48         55 
 20.5          42 
 20.52         49 
 20.54         58 
 20.56         53 
 20.58         50 
 20.6          51 
 20.62         67 
 20.64         66 
 20.66         59 
 20.68         64 
 20.7          62 
 20.72         47 
 20.74         59 
 20.76         61 
 20.78         53 
 20.8          73 
 20.82         49 
 20.84         67 
 20.86         52 
 20.88         56 
 20.9          59 
 20.92         65 
 20.94         70 
 20.96         55 
 20.98         66 
 21            62 
 21.02         60 
 21.04         67 
 21.06         58 
 21.08         63 
 21.1          46 
 21.12         61 
 21.14         60 
 21.16         78 
 21.18         62 
 21.2          59 
 21.22         72 
 21.24         59 
 21.26         56 
 21.28         63 
 21.3          73 
 21.32         56 
 21.34         61 
 21.36         68 
 21.38         57 
 21.4          78 
 21.42         59 
 21.44         77 
 21.46         70 
 21.48         65 
 21.5          77 
 21.52         75 
 21.54         82 
 21.56         69 
 21.58         75 
 21.6          84 
 21.62         88 
 21.64         82 
 21.66         93 
 21.68         92 
 21.7          80 
 21.72         83 
 21.74         78 
 21.76         87 
 21.78         78 
 21.8          79 
 21.82         73 
 21.84         59 
 21.86         68 
 21.88         58 
 21.9          58 
 21.92         75 
 21.94         55 
 21.96         53 
 21.98         71 
 22            86 
 22.02         58 
 22.04         59 
 22.06         68 
 22.08         54 
 22.1          57 
 22.12         76 
 22.14         62 
 22.16         53 
 22.18         51 
 22.2          60 
 22.22         67 
 22.24         69 
 22.26         68 
 22.28         57 
 22.3          76 
 22.32         61 
 22.34         68 
 22.36         68 
 22.38         67 
 22.4          73 
 22.42         70 
 22.44         57 
 22.46         78 
 22.48         68 
 22.5          72 
 22.52         73 
 22.54         69 
 22.56         59 
 22.58         66 
 22.6          81 
 22.62         58 
 22.64         78 
 22.66         72 
 22.68         61 
 22.7          66 
 22.72         66 
 22.74         63 
 22.76         64 
 22.78         74 
 22.8          74 
 22.82         71 
 22.84         50 
 22.86         70 
 22.88         55 
 22.9          72 
 22.92         55 
 22.94         60 
 22.96         49 
 22.98         73 
 23            49 
 23.02         70 
 23.04         82 
 23.06         62 
 23.08         53 
 23.1          62 
 23.12         70 
 23.14         55 
 23.16         64 
 23.18         48 
 23.2          44 
 23.22         66 
 23.24         59 
 23.26         64 
 23.28         50 
 23.3          66 
 23.32         57 
 23.34         62 
 23.36         52 
 23.38         55 
 23.4          59 
 23.42         70 
 23.44         66 
 23.46         62 
 23.48         81 
 23.5          62 
 23.52         52 
 23.54         66 
 23.56         67 
 23.58         53 
 23.6          50 
 23.62         66 
 23.64         60 
 23.66         56 
 23.68         60 
 23.7          65 
 23.72         94 
 23.74         71 
 23.76         56 
 23.78         52 
 23.8          70 
 23.82         46 
 23.84         64 
 23.86         63 
 23.88         66 
 23.9          80 
 23.92         56 
 23.94         59 
 23.96         62 
 23.98         55 
 24            61 
 24.02         67 
 24.04         69 
 24.06         56 
 24.08         58 
 24.1          51 
 24.12         64 
 24.14         59 
 24.16         53 
 24.18         58 
 24.2          66 
 24.22         59 
 24.24         51 
 24.26         65 
 24.28         68 
 24.3          83 
 24.32         63 
 24.34         56 
 24.36         53 
 24.38         44 
 24.4          66 
 24.42         64 
 24.44         61 
 24.46         80 
 24.48         67 
 24.5          74 
 24.52         67 
 24.54         59 
 24.56         58 
 24.58         73 
 24.6          65 
 24.62         57 
 24.64         51 
 24.66         74 
 24.68         65 
 24.7          69 
 24.72         74 
 24.74         60 
 24.76         73 
 24.78         90 
 24.8          70 
 24.82         84 
 24.84         59 
 24.86         66 
 24.88         85 
 24.9          69 
 24.92         66 
 24.94         63 
 24.96         74 
 24.98         61 
 25            73 
 25.02         72 
 25.04         77 
 25.06         62 
 25.08         55 
 25.1          67 
 25.12         87 
 25.14         84 
 25.16         72 
 25.18         78 
 25.2          61 
 25.22         68 
 25.24         73 
 25.26         65 
 25.28         89 
 25.3          81 
 25.32         96 
 25.34         87 
 25.36         84 
 25.38         84 
 25.4          89 
 25.42         89 
 25.44         84 
 25.46         116 
 25.48         91 
 25.5          125 
 25.52         97 
 25.54         123 
 25.56         122 
 25.58         126 
 25.6          158 
 25.62         162 
 25.64         151 
 25.66         152 
 25.68         162 
 25.7          163 
 25.72         183 
 25.74         149 
 25.76         163 
 25.78         176 
 25.8          164 
 25.82         143 
 25.84         148 
 25.86         146 
 25.88         138 
 25.9          121 
 25.92         130 
 25.94         153 
 25.96         142 
 25.98         172 
 26            157 
 26.02         171 
 26.04         162 
 26.06         172 
 26.08         171 
 26.1          183 
 26.12         177 
 26.14         187 
 26.16         202 
 26.18         209 
 26.2          276 
 26.22         264 
 26.24         273 
 26.26         273 
 26.28         308 
 26.3          322 
 26.32         332 
 26.34         346 
 26.36         374 
 26.38         355 
 26.4          409 
 26.42         395 
 26.44         449 
 26.46         436 
 26.48         454 
 26.5          475 
 26.52         472 
 26.54         474 
 26.56         427 
 26.58         450 
 26.6          456 
 26.62         406 
 26.64         376 
 26.66         361 
 26.68         336 
 26.7          309 
 26.72         280 
 26.74         282 
 26.76         279 
 26.78         242 
 26.8          228 
 26.82         228 
 26.84         241 
 26.86         213 
 26.88         225 
 26.9          216 
 26.92         199 
 26.94         209 
 26.96         222 
 26.98         185 
 27            218 
 27.02         209 
 27.04         196 
 27.06         205 
 27.08         200 
 27.1          205 
 27.12         226 
 27.14         246 
 27.16         208 
 27.18         192 
 27.2          253 
 27.22         258 
 27.24         243 
 27.26         263 
 27.28         306 
 27.3          271 
 27.32         302 
 27.34         341 
 27.36         349 
 27.38         361 
 27.4          375 
 27.42         406 
 27.44         474 
 27.46         482 
 27.48         575 
 27.5          495 
 27.52         621 
 27.54         690 
 27.56         704 
 27.58         762 
 27.6          865 
 27.62         933 
 27.64         965 
 27.66         1015 
 27.68         1135 
 27.7          1161 
 27.72         1185 
 27.74         1384 
 27.76         1381 
 27.78         1550 
 27.8          1518 
 27.82         1590 
 27.84         1618 
 27.86         1709 
 27.88         1641 
 27.9          1596 
 27.92         1595 
 27.94         1490 
 27.96         1335 
 27.98         1292 
 28            1173 
 28.02         1031 
 28.04         976 
 28.06         922 
 28.08         871 
 28.1          830 
 28.12         802 
 28.14         820 
 28.16         830 
 28.18         790 
 28.2          911 
 28.22         916 
 28.24         944 
 28.26         870 
 28.28         944 
 28.3          935 
 28.32         969 
 28.34         1085 
 28.36         1033 
 28.38         1040 
 28.4          1116 
 28.42         1034 
 28.44         1022 
 28.46         1042 
 28.48         997 
 28.5          966 
 28.52         942 
 28.54         887 
 28.56         807 
 28.58         796 
 28.6          674 
 28.62         600 
 28.64         621 
 28.66         532 
 28.68         492 
 28.7          405 
 28.72         422 
 28.74         404 
 28.76         368 
 28.78         377 
 28.8          363 
 28.82         315 
 28.84         299 
 28.86         305 
 28.88         283 
 28.9          268 
 28.92         255 
 28.94         277 
 28.96         262 
 28.98         260 
 29            254 
 29.02         255 
 29.04         293 
 29.06         244 
 29.08         228 
 29.1          264 
 29.12         235 
 29.14         268 
 29.16         227 
 29.18         262 
 29.2          263 
 29.22         277 
 29.24         287 
 29.26         300 
 29.28         287 
 29.3          306 
 29.32         331 
 29.34         337 
 29.36         335 
 29.38         361 
 29.4          347 
 29.42         400 
 29.44         431 
 29.46         433 
 29.48         478 
 29.5          436 
 29.52         519 
 29.54         492 
 29.56         503 
 29.58         522 
 29.6          521 
 29.62         534 
 29.64         508 
 29.66         499 
 29.68         471 
 29.7          472 
 29.72         462 
 29.74         497 
 29.76         481 
 29.78         440 
 29.8          445 
 29.82         439 
 29.84         396 
 29.86         393 
 29.88         395 
 29.9          399 
 29.92         452 
 29.94         428 
 29.96         395 
 29.98         476 
 30            439 
 30.02         476 
 30.04         446 
 30.06         516 
 30.08         520 
 30.1          558 
 30.12         555 
 30.14         557 
 30.16         581 
 30.18         668 
 30.2          761 
 30.22         694 
 30.24         813 
 30.26         790 
 30.28         866 
 30.3          927 
 30.32         971 
 30.34         1039 
 30.36         1036 
 30.38         1100 
 30.4          1157 
 30.42         1185 
 30.44         1129 
 30.46         1092 
 30.48         1091 
 30.5          1082 
 30.52         1046 
 30.54         959 
 30.56         900 
 30.58         889 
 30.6          781 
 30.62         753 
 30.64         688 
 30.66         623 
 30.68         547 
 30.7          532 
 30.72         510 
 30.74         439 
 30.76         417 
 30.78         374 
 30.8          339 
 30.82         339 
 30.84         333 
 30.86         282 
 30.88         291 
 30.9          273 
 30.92         234 
 30.94         230 
 30.96         208 
 30.98         239 
 31            211 
 31.02         207 
 31.04         182 
 31.06         189 
 31.08         181 
 31.1          166 
 31.12         165 
 31.14         171 
 31.16         133 
 31.18         151 
 31.2          134 
 31.22         161 
 31.24         146 
 31.26         103 
 31.28         129 
 31.3          110 
 31.32         96 
 31.34         116 
 31.36         119 
 31.38         112 
 31.4          114 
 31.42         123 
 31.44         101 
 31.46         106 
 31.48         116 
 31.5          109 
 31.52         106 
 31.54         107 
 31.56         112 
 31.58         112 
 31.6          115 
 31.62         106 
 31.64         115 
 31.66         86 
 31.68         109 
 31.7          112 
 31.72         111 
 31.74         122 
 31.76         116 
 31.78         123 
 31.8          131 
 31.82         132 
 31.84         110 
 31.86         136 
 31.88         143 
 31.9          136 
 31.92         149 
 31.94         158 
 31.96         175 
 31.98         164 
 32            175 
 32.02         179 
 32.04         168 
 32.06         180 
 32.08         222 
 32.1          190 
 32.12         167 
 32.14         210 
 32.16         204 
 32.18         204 
 32.2          201 
 32.22         156 
 32.24         196 
 32.26         169 
 32.28         165 
 32.3          162 
 32.32         157 
 32.34         154 
 32.36         141 
 32.38         117 
 32.4          124 
 32.42         110 
 32.44         114 
 32.46         105 
 32.48         114 
 32.5          109 
 32.52         105 
 32.54         101 
 32.56         101 
 32.58         78 
 32.6          85 
 32.62         82 
 32.64         76 
 32.66         87 
 32.68         74 
 32.7          79 
 32.72         79 
 32.74         79 
 32.76         72 
 32.78         73 
 32.8          64 
 32.82         66 
 32.84         61 
 32.86         63 
 32.88         61 
 32.9          51 
 32.92         69 
 32.94         48 
 32.96         61 
 32.98         62 
 33            56 
 33.02         65 
 33.04         51 
 33.06         53 
 33.08         56 
 33.1          59 
 33.12         54 
 33.14         41 
 33.16         52 
 33.18         33 
 33.2          54 
 33.22         43 
 33.24         49 
 33.26         53 
 33.28         42 
 33.3          50 
 33.32         49 
 33.34         42 
 33.36         40 
 33.38         49 
 33.4          43 
 33.42         47 
 33.44         47 
 33.46         45 
 33.48         51 
 33.5          58 
 33.52         45 
 33.54         52 
 33.56         42 
 33.58         50 
 33.6          44 
 33.62         49 
 33.64         37 
 33.66         40 
 33.68         43 
 33.7          47 
 33.72         39 
 33.74         57 
 33.76         38 
 33.78         40 
 33.8          32 
 33.82         41 
 33.84         36 
 33.86         38 
 33.88         42 
 33.9          44 
 33.92         29 
 33.94         54 
 33.96         42 
 33.98         36 
 34            41 
 34.02         48 
 34.04         46 
 34.06         40 
 34.08         43 
 34.1          35 
 34.12         40 
 34.14         50 
 34.16         45 
 34.18         45 
 34.2          36 
 34.22         57 
 34.24         41 
 34.26         44 
 34.28         49 
 34.3          57 
 34.32         48 
 34.34         41 
 34.36         56 
 34.38         50 
 34.4          48 
 34.42         42 
 34.44         43 
 34.46         54 
 34.48         59 
 34.5          46 
 34.52         54 
 34.54         50 
 34.56         52 
 34.58         46 
 34.6          36 
 34.62         46 
 34.64         56 
 34.66         55 
 34.68         49 
 34.7          50 
 34.72         38 
 34.74         47 
 34.76         50 
 34.78         52 
 34.8          51 
 34.82         38 
 34.84         50 
 34.86         40 
 34.88         49 
 34.9          44 
 34.92         42 
 34.94         49 
 34.96         42 
 34.98         54 
 35            39 
 35.02         35 
 35.04         27 
 35.06         43 
 35.08         41 
 35.1          50 
 35.12         41 
 35.14         53 
 35.16         39 
 35.18         43 
 35.2          50 
 35.22         41 
 35.24         30 
 35.26         46 
 35.28         38 
 35.3          45 
 35.32         43 
 35.34         38 
 35.36         43 
 35.38         43 
 35.4          45 
 35.42         51 
 35.44         36 
 35.46         47 
 35.48         41 
 35.5          41 
 35.52         56 
 35.54         54 
 35.56         42 
 35.58         47 
 35.6          50 
 35.62         53 
 35.64         61 
 35.66         56 
 35.68         43 
 35.7          62 
 35.72         46 
 35.74         46 
 35.76         49 
 35.78         39 
 35.8          31 
 35.82         45 
 35.84         64 
 35.86         56 
 35.88         54 
 35.9          49 
 35.92         47 
 35.94         57 
 35.96         61 
 35.98         59 
 36            67 
 36.02         68 
 36.04         72 
 36.06         81 
 36.08         74 
 36.1          67 
 36.12         86 
 36.14         77 
 36.16         84 
 36.18         94 
 36.2          78 
 36.22         102 
 36.24         94 
 36.26         105 
 36.28         98 
 36.3          132 
 36.32         135 
 36.34         136 
 36.36         133 
 36.38         147 
 36.4          181 
 36.42         189 
 36.44         194 
 36.46         234 
 36.48         218 
 36.5          241 
 36.52         284 
 36.54         278 
 36.56         308 
 36.58         334 
 36.6          387 
 36.62         355 
 36.64         348 
 36.66         386 
 36.68         416 
 36.7          411 
 36.72         372 
 36.74         391 
 36.76         332 
 36.78         313 
 36.8          306 
 36.82         236 
 36.84         224 
 36.86         194 
 36.88         212 
 36.9          183 
 36.92         151 
 36.94         119 
 36.96         136 
 36.98         131 
 37            96 
 37.02         112 
 37.04         92 
 37.06         80 
 37.08         84 
 37.1          69 
 37.12         75 
 37.14         84 
 37.16         65 
 37.18         66 
 37.2          75 
 37.22         62 
 37.24         60 
 37.26         62 
 37.28         71 
 37.3          54 
 37.32         55 
 37.34         60 
 37.36         49 
 37.38         65 
 37.4          52 
 37.42         65 
 37.44         56 
 37.46         57 
 37.48         46 
 37.5          50 
 37.52         47 
 37.54         43 
 37.56         64 
 37.58         56 
 37.6          50 
 37.62         52 
 37.64         59 
 37.66         44 
 37.68         41 
 37.7          44 
 37.72         36 
 37.74         49 
 37.76         44 
 37.78         47 
 37.8          37 
 37.82         50 
 37.84         60 
 37.86         58 
 37.88         35 
 37.9          41 
 37.92         36 
 37.94         40 
 37.96         42 
 37.98         34 
 38            57 
 38.02         45 
 38.04         46 
 38.06         45 
 38.08         43 
 38.1          32 
 38.12         35 
 38.14         37 
 38.16         43 
 38.18         40 
 38.2          38 
 38.22         50 
 38.24         49 
 38.26         42 
 38.28         41 
 38.3          56 
 38.32         39 
 38.34         52 
 38.36         53 
 38.38         74 
 38.4          61 
 38.42         60 
 38.44         53 
 38.46         49 
 38.48         55 
 38.5          42 
 38.52         58 
 38.54         58 
 38.56         46 
 38.58         46 
 38.6          55 
 38.62         58 
 38.64         48 
 38.66         40 
 38.68         50 
 38.7          48 
 38.72         45 
 38.74         46 
 38.76         54 
 38.78         47 
 38.8          53 
 38.82         50 
 38.84         68 
 38.86         58 
 38.88         49 
 38.9          54 
 38.92         61 
 38.94         44 
 38.96         65 
 38.98         65 
 39            49 
 39.02         56 
 39.04         69 
 39.06         60 
 39.08         50 
 39.1          75 
 39.12         77 
 39.14         91 
 39.16         78 
 39.18         71 
 39.2          78 
 39.22         98 
 39.24         95 
 39.26         81 
 39.28         97 
 39.3          97 
 39.32         110 
 39.34         105 
 39.36         106 
 39.38         103 
 39.4          116 
 39.42         143 
 39.44         135 
 39.46         127 
 39.48         141 
 39.5          148 
 39.52         149 
 39.54         172 
 39.56         168 
 39.58         174 
 39.6          200 
 39.62         221 
 39.64         220 
 39.66         246 
 39.68         264 
 39.7          293 
 39.72         312 
 39.74         341 
 39.76         391 
 39.78         392 
 39.8          361 
 39.82         389 
 39.84         421 
 39.86         491 
 39.88         460 
 39.9          534 
 39.92         606 
 39.94         562 
 39.96         607 
 39.98         615 
 40            651 
 40.02         627 
 40.04         737 
 40.06         714 
 40.08         714 
 40.1          711 
 40.12         756 
 40.14         726 
 40.16         690 
 40.18         658 
 40.2          683 
 40.22         655 
 40.24         643 
 40.26         581 
 40.28         580 
 40.3          521 
 40.32         488 
 40.34         474 
 40.36         421 
 40.38         414 
 40.4          380 
 40.42         382 
 40.44         338 
 40.46         320 
 40.48         292 
 40.5          273 
 40.52         259 
 40.54         229 
 40.56         213 
 40.58         218 
 40.6          204 
 40.62         182 
 40.64         167 
 40.66         165 
 40.68         179 
 40.7          161 
 40.72         164 
 40.74         146 
 40.76         143 
 40.78         130 
 40.8          122 
 40.82         102 
 40.84         118 
 40.86         98 
 40.88         108 
 40.9          102 
 40.92         96 
 40.94         92 
 40.96         87 
 40.98         76 
 41            77 
 41.02         74 
 41.04         78 
 41.06         74 
 41.08         53 
 41.1          56 
 41.12         65 
 41.14         68 
 41.16         78 
 41.18         53 
 41.2          57 
 41.22         69 
 41.24         68 
 41.26         68 
 41.28         70 
 41.3          62 
 41.32         52 
 41.34         60 
 41.36         64 
 41.38         50 
 41.4          58 
 41.42         65 
 41.44         59 
 41.46         72 
 41.48         68 
 41.5          76 
 41.52         70 
 41.54         75 
 41.56         82 
 41.58         70 
 41.6          88 
 41.62         90 
 41.64         87 
 41.66         86 
 41.68         113 
 41.7          100 
 41.72         129 
 41.74         139 
 41.76         140 
 41.78         143 
 41.8          155 
 41.82         168 
 41.84         176 
 41.86         157 
 41.88         174 
 41.9          203 
 41.92         199 
 41.94         193 
 41.96         171 
 41.98         182 
 42            151 
 42.02         137 
 42.04         133 
 42.06         125 
 42.08         110 
 42.1          97 
 42.12         97 
 42.14         93 
 42.16         97 
 42.18         80 
 42.2          99 
 42.22         95 
 42.24         89 
 42.26         87 
 42.28         62 
 42.3          76 
 42.32         74 
 42.34         65 
 42.36         74 
 42.38         80 
 42.4          76 
 42.42         63 
 42.44         77 
 42.46         74 
 42.48         71 
 42.5          72 
 42.52         76 
 42.54         80 
 42.56         73 
 42.58         71 
 42.6          78 
 42.62         76 
 42.64         106 
 42.66         84 
 42.68         97 
 42.7          100 
 42.72         93 
 42.74         105 
 42.76         102 
 42.78         110 
 42.8          112 
 42.82         111 
 42.84         123 
 42.86         125 
 42.88         103 
 42.9          126 
 42.92         120 
 42.94         125 
 42.96         123 
 42.98         123 
 43            94 
 43.02         106 
 43.04         121 
 43.06         103 
 43.08         106 
 43.1          99 
 43.12         100 
 43.14         115 
 43.16         87 
 43.18         78 
 43.2          83 
 43.22         92 
 43.24         83 
 43.26         73 
 43.28         71 
 43.3          52 
 43.32         69 
 43.34         63 
 43.36         80 
 43.38         60 
 43.4          69 
 43.42         69 
 43.44         61 
 43.46         52 
 43.48         49 
 43.5          59 
 43.52         69 
 43.54         50 
 43.56         51 
 43.58         46 
 43.6          43 
 43.62         42 
 43.64         37 
 43.66         45 
 43.68         44 
 43.7          40 
 43.72         45 
 43.74         48 
 43.76         40 
 43.78         47 
 43.8          45 
 43.82         32 
 43.84         57 
 43.86         43 
 43.88         37 
 43.9          54 
 43.92         52 
 43.94         54 
 43.96         43 
 43.98         30 
 44            47 
 44.02         46 
 44.04         30 
 44.06         41 
 44.08         42 
 44.1          47 
 44.12         43 
 44.14         48 
 44.16         42 
 44.18         52 
 44.2          44 
 44.22         56 
 44.24         40 
 44.26         38 
 44.28         45 
 44.3          40 
 44.32         44 
 44.34         46 
 44.36         52 
 44.38         55 
 44.4          45 
 44.42         46 
 44.44         44 
 44.46         59 
 44.48         63 
 44.5          57 
 44.52         67 
 44.54         60 
 44.56         74 
 44.58         64 
 44.6          64 
 44.62         71 
 44.64         64 
 44.66         79 
 44.68         79 
 44.7          69 
 44.72         81 
 44.74         80 
 44.76         83 
 44.78         93 
 44.8          86 
 44.82         61 
 44.84         78 
 44.86         94 
 44.88         58 
 44.9          60 
 44.92         64 
 44.94         65 
 44.96         58 
 44.98         68 
 45            53 
 45.02         50 
 45.04         53 
 45.06         41 
 45.08         42 
 45.1          54 
 45.12         49 
 45.14         54 
 45.16         38 
 45.18         33 
 45.2          50 
 45.22         41 
 45.24         42 
 45.26         40 
 45.28         40 
 45.3          48 
 45.32         46 
 45.34         49 
 45.36         46 
 45.38         43 
 45.4          42 
 45.42         47 
 45.44         54 
 45.46         45 
 45.48         43 
 45.5          36 
 45.52         36 
 45.54         42 
 45.56         36 
 45.58         45 
 45.6          45 
 45.62         47 
 45.64         45 
 45.66         43 
 45.68         33 
 45.7          47 
 45.72         48 
 45.74         43 
 45.76         38 
 45.78         51 
 45.8          55 
 45.82         37 
 45.84         56 
 45.86         40 
 45.88         47 
 45.9          62 
 45.92         45 
 45.94         60 
 45.96         45 
 45.98         50 
 46            55 
 46.02         45 
 46.04         53 
 46.06         52 
 46.08         68 
 46.1          52 
 46.12         69 
 46.14         59 
 46.16         61 
 46.18         72 
 46.2          75 
 46.22         72 
 46.24         72 
 46.26         84 
 46.28         62 
 46.3          76 
 46.32         102 
 46.34         91 
 46.36         79 
 46.38         92 
 46.4          91 
 46.42         110 
 46.44         107 
 46.46         109 
 46.48         122 
 46.5          117 
 46.52         129 
 46.54         139 
 46.56         129 
 46.58         138 
 46.6          148 
 46.62         162 
 46.64         148 
 46.66         175 
 46.68         157 
 46.7          159 
 46.72         170 
 46.74         201 
 46.76         165 
 46.78         174 
 46.8          168 
 46.82         176 
 46.84         171 
 46.86         157 
 46.88         139 
 46.9          148 
 46.92         140 
 46.94         137 
 46.96         117 
 46.98         110 
 47            136 
 47.02         115 
 47.04         100 
 47.06         104 
 47.08         96 
 47.1          99 
 47.12         90 
 47.14         108 
 47.16         90 
 47.18         88 
 47.2          97 
 47.22         90 
 47.24         92 
 47.26         94 
 47.28         113 
 47.3          78 
 47.32         90 
 47.34         79 
 47.36         85 
 47.38         79 
 47.4          94 
 47.42         88 
 47.44         106 
 47.46         108 
 47.48         80 
 47.5          91 
 47.52         130 
 47.54         131 
 47.56         104 
 47.58         115 
 47.6          135 
 47.62         132 
 47.64         119 
 47.66         119 
 47.68         125 
 47.7          155 
 47.72         122 
 47.74         140 
 47.76         155 
 47.78         139 
 47.8          124 
 47.82         145 
 47.84         131 
 47.86         159 
 47.88         126 
 47.9          123 
 47.92         119 
 47.94         128 
 47.96         120 
 47.98         110 
 48            126 
 48.02         92 
 48.04         106 
 48.06         95 
 48.08         102 
 48.1          85 
 48.12         97 
 48.14         93 
 48.16         97 
 48.18         88 
 48.2          105 
 48.22         98 
 48.24         97 
 48.26         81 
 48.28         88 
 48.3          94 
 48.32         91 
 48.34         122 
 48.36         95 
 48.38         105 
 48.4          85 
 48.42         93 
 48.44         91 
 48.46         111 
 48.48         122 
 48.5          124 
 48.52         133 
 48.54         133 
 48.56         146 
 48.58         142 
 48.6          141 
 48.62         178 
 48.64         192 
 48.66         159 
 48.68         192 
 48.7          221 
 48.72         210 
 48.74         212 
 48.76         242 
 48.78         262 
 48.8          238 
 48.82         233 
 48.84         274 
 48.86         271 
 48.88         276 
 48.9          293 
 48.92         289 
 48.94         313 
 48.96         343 
 48.98         363 
 49            332 
 49.02         361 
 49.04         372 
 49.06         388 
 49.08         376 
 49.1          415 
 49.12         389 
 49.14         371 
 49.16         422 
 49.18         418 
 49.2          442 
 49.22         452 
 49.24         428 
 49.26         425 
 49.28         455 
 49.3          471 
 49.32         486 
 49.34         495 
 49.36         447 
 49.38         430 
 49.4          439 
 49.42         448 
 49.44         419 
 49.46         415 
 49.48         433 
 49.5          438 
 49.52         424 
 49.54         379 
 49.56         386 
 49.58         329 
 49.6          360 
 49.62         302 
 49.64         305 
 49.66         300 
 49.68         265 
 49.7          269 
 49.72         236 
 49.74         234 
 49.76         214 
 49.78         199 
 49.8          223 
 49.82         200 
 49.84         181 
 49.86         196 
 49.88         178 
 49.9          156 
 49.92         136 
 49.94         140 
 49.96         157 
 49.98         129 
 50            108 
 50.02         116 
 50.04         120 
 50.06         118 
 50.08         113 
 50.1          107 
 50.12         98 
 50.14         100 
 50.16         114 
 50.18         96 
 50.2          95 
 50.22         89 
 50.24         93 
 50.26         97 
 50.28         92 
 50.3          58 
 50.32         89 
 50.34         83 
 50.36         89 
 50.38         84 
 50.4          96 
 50.42         98 
 50.44         87 
 50.46         86 
 50.48         95 
 50.5          108 
 50.52         95 
 50.54         92 
 50.56         93 
 50.58         91 
 50.6          96 
 50.62         77 
 50.64         119 
 50.66         114 
 50.68         86 
 50.7          104 
 50.72         102 
 50.74         80 
 50.76         92 
 50.78         81 
 50.8          80 
 50.82         85 
 50.84         78 
 50.86         86 
 50.88         84 
 50.9          56 
 50.92         70 
 50.94         66 
 50.96         52 
 50.98         60 
 51            47 
 51.02         69 
 51.04         56 
 51.06         42 
 51.08         62 
 51.1          48 
 51.12         54 
 51.14         53 
 51.16         55 
 51.18         60 
 51.2          50 
 51.22         45 
 51.24         51 
 51.26         40 
 51.28         50 
 51.3          44 
 51.32         45 
 51.34         38 
 51.36         36 
 51.38         43 
 51.4          38 
 51.42         42 
 51.44         49 
 51.46         45 
 51.48         45 
 51.5          38 
 51.52         39 
 51.54         37 
 51.56         41 
 51.58         33 
 51.6          45 
 51.62         44 
 51.64         32 
 51.66         38 
 51.68         43 
 51.7          42 
 51.72         42 
 51.74         33 
 51.76         28 
 51.78         38 
 51.8          37 
 51.82         38 
 51.84         39 
 51.86         47 
 51.88         44 
 51.9          51 
 51.92         34 
 51.94         39 
 51.96         50 
 51.98         26 
 52            48 
 52.02         49 
 52.04         49 
 52.06         44 
 52.08         47 
 52.1          45 
 52.12         37 
 52.14         52 
 52.16         54 
 52.18         49 
 52.2          55 
 52.22         45 
 52.24         61 
 52.26         46 
 52.28         50 
 52.3          42 
 52.32         49 
 52.34         54 
 52.36         53 
 52.38         60 
 52.4          53 
 52.42         49 
 52.44         71 
 52.46         57 
 52.48         79 
 52.5          60 
 52.52         80 
 52.54         89 
 52.56         75 
 52.58         106 
 52.6          58 
 52.62         82 
 52.64         87 
 52.66         74 
 52.68         80 
 52.7          113 
 52.72         93 
 52.74         76 
 52.76         112 
 52.78         86 
 52.8          127 
 52.82         124 
 52.84         99 
 52.86         110 
 52.88         130 
 52.9          99 
 52.92         128 
 52.94         94 
 52.96         105 
 52.98         103 
 53            106 
 53.02         102 
 53.04         85 
 53.06         86 
 53.08         80 
 53.1          87 
 53.12         79 
 53.14         78 
 53.16         100 
 53.18         78 
 53.2          66 
 53.22         68 
 53.24         57 
 53.26         56 
 53.28         61 
 53.3          75 
 53.32         60 
 53.34         58 
 53.36         59 
 53.38         54 
 53.4          45 
 53.42         52 
 53.44         58 
 53.46         39 
 53.48         41 
 53.5          38 
 53.52         48 
 53.54         48 
 53.56         42 
 53.58         41 
 53.6          37 
 53.62         44 
 53.64         37 
 53.66         33 
 53.68         39 
 53.7          42 
 53.72         41 
 53.74         41 
 53.76         32 
 53.78         31 
 53.8          33 
 53.82         41 
 53.84         31 
 53.86         49 
 53.88         41 
 53.9          46 
 53.92         45 
 53.94         46 
 53.96         46 
 53.98         40 
 54            45 
 54.02         52 
 54.04         43 
 54.06         39 
 54.08         45 
 54.1          48 
 54.12         49 
 54.14         47 
 54.16         67 
 54.18         52 
 54.2          60 
 54.22         55 
 54.24         58 
 54.26         51 
 54.28         49 
 54.3          68 
 54.32         60 
 54.34         55 
 54.36         58 
 54.38         50 
 54.4          60 
 54.42         51 
 54.44         61 
 54.46         85 
 54.48         76 
 54.5          77 
 54.52         81 
 54.54         82 
 54.56         78 
 54.58         94 
 54.6          105 
 54.62         88 
 54.64         73 
 54.66         107 
 54.68         85 
 54.7          98 
 54.72         109 
 54.74         112 
 54.76         122 
 54.78         143 
 54.8          141 
 54.82         160 
 54.84         148 
 54.86         160 
 54.88         182 
 54.9          181 
 54.92         217 
 54.94         214 
 54.96         250 
 54.98         221 
 55            239 
 55.02         255 
 55.04         282 
 55.06         297 
 55.08         277 
 55.1          315 
 55.12         326 
 55.14         265 
 55.16         249 
 55.18         261 
 55.2          253 
 55.22         236 
 55.24         208 
 55.26         198 
 55.28         199 
 55.3          174 
 55.32         177 
 55.34         176 
 55.36         164 
 55.38         140 
 55.4          158 
 55.42         140 
 55.44         131 
 55.46         153 
 55.48         141 
 55.5          138 
 55.52         138 
 55.54         151 
 55.56         153 
 55.58         152 
 55.6          126 
 55.62         138 
 55.64         146 
 55.66         136 
 55.68         125 
 55.7          138 
 55.72         145 
 55.74         162 
 55.76         156 
 55.78         171 
 55.8          153 
 55.82         178 
 55.84         187 
 55.86         188 
 55.88         210 
 55.9          201 
 55.92         215 
 55.94         198 
 55.96         201 
 55.98         202 
 56            209 
 56.02         209 
 56.04         236 
 56.06         208 
 56.08         230 
 56.1          224 
 56.12         239 
 56.14         213 
 56.16         202 
 56.18         217 
 56.2          222 
 56.22         210 
 56.24         207 
 56.26         184 
 56.28         199 
 56.3          214 
 56.32         177 
 56.34         146 
 56.36         162 
 56.38         171 
 56.4          148 
 56.42         165 
 56.44         145 
 56.46         140 
 56.48         159 
 56.5          155 
 56.52         138 
 56.54         132 
 56.56         165 
 56.58         147 
 56.6          135 
 56.62         134 
 56.64         123 
 56.66         129 
 56.68         141 
 56.7          134 
 56.72         123 
 56.74         128 
 56.76         123 
 56.78         135 
 56.8          121 
 56.82         138 
 56.84         111 
 56.86         134 
 56.88         120 
 56.9          135 
 56.92         140 
 56.94         140 
 56.96         112 
 56.98         139 
 57            118 
 57.02         112 
 57.04         136 
 57.06         133 
 57.08         121 
 57.1          141 
 57.12         128 
 57.14         146 
 57.16         152 
 57.18         139 
 57.2          160 
 57.22         132 
 57.24         131 
 57.26         157 
 57.28         131 
 57.3          141 
 57.32         145 
 57.34         145 
 57.36         138 
 57.38         142 
 57.4          146 
 57.42         144 
 57.44         137 
 57.46         136 
 57.48         146 
 57.5          145 
 57.52         107 
 57.54         122 
 57.56         100 
 57.58         105 
 57.6          93 
 57.62         93 
 57.64         85 
 57.66         82 
 57.68         76 
 57.7          88 
 57.72         67 
 57.74         72 
 57.76         56 
 57.78         62 
 57.8          52 
 57.82         45 
 57.84         66 
 57.86         50 
 57.88         70 
 57.9          43 
 57.92         37 
 57.94         42 
 57.96         39 
 57.98         29 
 58            50 
 58.02         44 
 58.04         52 
 58.06         51 
 58.08         43 
 58.1          50 
 58.12         48 
 58.14         49 
 58.16         50 
 58.18         36 
 58.2          50 
 58.22         43 
 58.24         45 
 58.26         39 
 58.28         48 
 58.3          45 
 58.32         45 
 58.34         52 
 58.36         63 
 58.38         51 
 58.4          49 
 58.42         42 
 58.44         61 
 58.46         52 
 58.48         51 
 58.5          32 
 58.52         54 
 58.54         61 
 58.56         63 
 58.58         69 
 58.6          59 
 58.62         50 
 58.64         43 
 58.66         49 
 58.68         48 
 58.7          52 
 58.72         53 
 58.74         56 
 58.76         48 
 58.78         46 
 58.8          48 
 58.82         52 
 58.84         36 
 58.86         35 
 58.88         45 
 58.9          42 
 58.92         43 
 58.94         45 
 58.96         37 
 58.98         40 
 59            42 
 59.02         50 
 59.04         50 
 59.06         44 
 59.08         34 
 59.1          44 
 59.12         41 
 59.14         36 
 59.16         39 
 59.18         34 
 59.2          41 
 59.22         35 
 59.24         42 
 59.26         25 
 59.28         44 
 59.3          48 
 59.32         47 
 59.34         43 
 59.36         34 
 59.38         41 
 59.4          42 
 59.42         42 
 59.44         51 
 59.46         42 
 59.48         60 
 59.5          50 
 59.52         53 
 59.54         59 
 59.56         44 
 59.58         45 
 59.6          45 
 59.62         54 
 59.64         36 
 59.66         52 
 59.68         41 
 59.7          38 
 59.72         34 
 59.74         45 
 59.76         40 
 59.78         42 
 59.8          47 
 59.82         38 
 59.84         35 
 59.86         42 
 59.88         34 
 59.9          31 
 59.92         46 
 59.94         42 
 59.96         40 
 59.98         40 
 60            39 
 60.02         38 
 60.04         28 
 60.06         29 
 60.08         30 
 60.1          28 
 60.12         25 
 60.14         19 
 60.16         27 
 60.18         27 
 60.2          28 
 60.22         30 
 60.24         32 
 60.26         33 
 60.28         29 
 60.3          23 
 60.32         25 
 60.34         31 
 60.36         23 
 60.38         37 
 60.4          25 
 60.42         25 
 60.44         33 
 60.46         21 
 60.48         16 
 60.5          35 
 60.52         39 
 60.54         35 
 60.56         28 
 60.58         27 
 60.6          22 
 60.62         28 
 60.64         12 
 60.66         20 
 60.68         27 
 60.7          34 
 60.72         28 
 60.74         29 
 60.76         21 
 60.78         17 
 60.8          27 
 60.82         34 
 60.84         21 
 60.86         27 
 60.88         15 
 60.9          17 
 60.92         21 
 60.94         22 
 60.96         29 
 60.98         30 
 61            26 
 61.02         33 
 61.04         35 
 61.06         23 
 61.08         26 
 61.1          18 
 61.12         27 
 61.14         17 
 61.16         38 
 61.18         34 
 61.2          30 
 61.22         24 
 61.24         21 
 61.26         21 
 61.28         28 
 61.3          30 
 61.32         21 
 61.34         24 
 61.36         23 
 61.38         29 
 61.4          19 
 61.42         28 
 61.44         21 
 61.46         17 
 61.48         23 
 61.5          16 
 61.52         21 
 61.54         18 
 61.56         15 
 61.58         10 
 61.6          28 
 61.62         14 
 61.64         23 
 61.66         24 
 61.68         20 
 61.7          27 
 61.72         17 
 61.74         26 
 61.76         16 
 61.78         23 
 61.8          30 
 61.82         21 
 61.84         19 
 61.86         16 
 61.88         16 
 61.9          15 
 61.92         16 
 61.94         20 
 61.96         31 
 61.98         14 
 62            16 
 62.02         21 
 62.04         16 
 62.06         16 
 62.08         24 
 62.1          32 
 62.12         20 
 62.14         18 
 62.16         22 
 62.18         17 
 62.2          20 
 62.22         22 
 62.24         25 
 62.26         18 
 62.28         18 
 62.3          21 
 62.32         22 
 62.34         24 
 62.36         17 
 62.38         25 
 62.4          22 
 62.42         26 
 62.44         15 
 62.46         21 
 62.48         25 
 62.5          26 
 62.52         28 
 62.54         29 
 62.56         28 
 62.58         26 
 62.6          33 
 62.62         26 
 62.64         21 
 62.66         26 
 62.68         25 
 62.7          27 
 62.72         28 
 62.74         33 
 62.76         28 
 62.78         32 
 62.8          33 
 62.82         30 
 62.84         30 
 62.86         41 
 62.88         38 
 62.9          43 
 62.92         37 
 62.94         43 
 62.96         35 
 62.98         36 
 63            38 
 63.02         41 
 63.04         43 
 63.06         41 
 63.08         50 
 63.1          36 
 63.12         29 
 63.14         37 
 63.16         42 
 63.18         41 
 63.2          34 
 63.22         43 
 63.24         39 
 63.26         40 
 63.28         30 
 63.3          48 
 63.32         44 
 63.34         46 
 63.36         61 
 63.38         54 
 63.4          63 
 63.42         55 
 63.44         59 
 63.46         60 
 63.48         53 
 63.5          76 
 63.52         69 
 63.54         67 
 63.56         58 
 63.58         41 
 63.6          64 
 63.62         52 
 63.64         56 
 63.66         39 
 63.68         43 
 63.7          47 
 63.72         38 
 63.74         39 
 63.76         43 
 63.78         43 
 63.8          42 
 63.82         35 
 63.84         45 
 63.86         51 
 63.88         33 
 63.9          40 
 63.92         40 
 63.94         47 
 63.96         43 
 63.98         44 
 64            35 
 64.02         39 
 64.04         50 
 64.06         52 
 64.08         51 
 64.1          35 
 64.12         61 
 64.14         36 
 64.16         48 
 64.18         54 
 64.2          54 
 64.22         46 
 64.24         53 
 64.26         56 
 64.28         57 
 64.3          59 
 64.32         54 
 64.34         51 
 64.36         63 
 64.38         64 
 64.4          69 
 64.42         73 
 64.44         76 
 64.46         89 
 64.48         95 
 64.5          103 
 64.52         105 
 64.54         97 
 64.56         96 
 64.58         94 
 64.6          96 
 64.62         112 
 64.64         114 
 64.66         120 
 64.68         120 
 64.7          113 
 64.72         141 
 64.74         128 
 64.76         155 
 64.78         138 
 64.8          130 
 64.82         116 
 64.84         115 
 64.86         138 
 64.88         140 
 64.9          122 
 64.92         123 
 64.94         131 
 64.96         140 
 64.98         120 
 65            108 
 65.02         102 
 65.04         113 
 65.06         112 
 65.08         101 
 65.1          96 
 65.12         112 
 65.14         98 
 65.16         108 
 65.18         90 
 65.2          103 
 65.22         85 
 65.24         78 
 65.26         89 
 65.28         103 
 65.3          68 
 65.32         74 
 65.34         72 
 65.36         71 
 65.38         81 
 65.4          67 
 65.42         73 
 65.44         65 
 65.46         58 
 65.48         54 
 65.5          65 
 65.52         80 
 65.54         60 
 65.56         83 
 65.58         64 
 65.6          78 
 65.62         60 
 65.64         71 
 65.66         77 
 65.68         66 
 65.7          73 
 65.72         60 
 65.74         57 
 65.76         68 
 65.78         59 
 65.8          62 
 65.82         62 
 65.84         45 
 65.86         45 
 65.88         64 
 65.9          66 
 65.92         54 
 65.94         69 
 65.96         81 
 65.98         59 
 66            56 
 66.02         53 
 66.04         59 
 66.06         58 
 66.08         72 
 66.1          69 
 66.12         47 
 66.14         49 
 66.16         51 
 66.18         47 
 66.2          43 
 66.22         48 
 66.24         51 
 66.26         37 
 66.28         43 
 66.3          50 
 66.32         48 
 66.34         42 
 66.36         42 
 66.38         36 
 66.4          41 
 66.42         32 
 66.44         40 
 66.46         45 
 66.48         35 
 66.5          54 
 66.52         44 
 66.54         33 
 66.56         28 
 66.58         47 
 66.6          33 
 66.62         43 
 66.64         46 
 66.66         37 
 66.68         41 
 66.7          41 
 66.72         36 
 66.74         32 
 66.76         30 
 66.78         43 
 66.8          31 
 66.82         39 
 66.84         34 
 66.86         49 
 66.88         27 
 66.9          34 
 66.92         40 
 66.94         36 
 66.96         38 
 66.98         30 
 67            33 
 67.02         29 
 67.04         40 
 67.06         34 
 67.08         36 
 67.1          37 
 67.12         29 
 67.14         42 
 67.16         34 
 67.18         37 
 67.2          28 
 67.22         24 
 67.24         30 
 67.26         31 
 67.28         34 
 67.3          30 
 67.32         25 
 67.34         39 
 67.36         32 
 67.38         26 
 67.4          35 
 67.42         33 
 67.44         25 
 67.46         30 
 67.48         24 
 67.5          34 
 67.52         24 
 67.54         20 
 67.56         32 
 67.58         29 
 67.6          35 
 67.62         24 
 67.64         29 
 67.66         33 
 67.68         23 
 67.7          32 
 67.72         30 
 67.74         29 
 67.76         34 
 67.78         31 
 67.8          35 
 67.82         19 
 67.84         23 
 67.86         31 
 67.88         30 
 67.9          22 
 67.92         26 
 67.94         19 
 67.96         24 
 67.98         32 
 68            23 
 68.02         25 
 68.04         30 
 68.06         27 
 68.08         24 
 68.1          20 
 68.12         21 
 68.14         21 
 68.16         26 
 68.18         28 
 68.2          25 
 68.22         19 
 68.24         34 
 68.26         22 
 68.28         31 
 68.3          27 
 68.32         22 
 68.34         29 
 68.36         23 
 68.38         23 
 68.4          32 
 68.42         25 
 68.44         25 
 68.46         16 
 68.48         29 
 68.5          21 
 68.52         20 
 68.54         25 
 68.56         24 
 68.58         18 
 68.6          25 
 68.62         22 
 68.64         24 
 68.66         19 
 68.68         29 
 68.7          22 
 68.72         38 
 68.74         42 
 68.76         29 
 68.78         37 
 68.8          36 
 68.82         31 
 68.84         30 
 68.86         34 
 68.88         24 
 68.9          26 
 68.92         30 
 68.94         34 
 68.96         33 
 68.98         34 
 69            35 
 69.02         39 
 69.04         31 
 69.06         28 
 69.08         37 
 69.1          37 
 69.12         36 
 69.14         37 
 69.16         39 
 69.18         45 
 69.2          33 
 69.22         33 
 69.24         46 
 69.26         45 
 69.28         31 
 69.3          39 
 69.32         48 
 69.34         43 
 69.36         52 
 69.38         60 
 69.4          68 
 69.42         47 
 69.44         66 
 69.46         51 
 69.48         55 
 69.5          72 
 69.52         56 
 69.54         59 
 69.56         64 
 69.58         82 
 69.6          96 
 69.62         84 
 69.64         100 
 69.66         113 
 69.68         81 
 69.7          92 
 69.72         103 
 69.74         112 
 69.76         104 
 69.78         119 
 69.8          93 
 69.82         95 
 69.84         103 
 69.86         128 
 69.88         99 
 69.9          89 
 69.92         108 
 69.94         99 
 69.96         115 
 69.98         97 
 70            106 
 70.02         109 
 70.04         99 
 70.06         101 
 70.08         109 
 70.1          109 
 70.12         94 
 70.14         111 
 70.16         84 
 70.18         116 
 70.2          89 
 70.22         98 
 70.24         111 
 70.26         98 
 70.28         126 
 70.3          94 
 70.32         116 
 70.34         111 
 70.36         128 
 70.38         130 
 70.4          114 
 70.42         131 
 70.44         122 
 70.46         144 
 70.48         155 
 70.5          139 
 70.52         149 
 70.54         151 
 70.56         149 
 70.58         123 
 70.6          133 
 70.62         128 
 70.64         125 
 70.66         117 
 70.68         131 
 70.7          115 
 70.72         137 
 70.74         109 
 70.76         94 
 70.78         105 
 70.8          102 
 70.82         102 
 70.84         93 
 70.86         82 
 70.88         80 
 70.9          80 
 70.92         72 
 70.94         82 
 70.96         66 
 70.98         74 
 71            65 
 71.02         54 
 71.04         72 
 71.06         69 
 71.08         63 
 71.1          61 
 71.12         59 
 71.14         44 
 71.16         49 
 71.18         54 
 71.2          50 
 71.22         56 
 71.24         56 
 71.26         60 
 71.28         48 
 71.3          49 
 71.32         55 
 71.34         39 
 71.36         53 
 71.38         57 
 71.4          42 
 71.42         36 
 71.44         62 
 71.46         46 
 71.48         41 
 71.5          54 
 71.52         45 
 71.54         48 
 71.56         45 
 71.58         49 
 71.6          46 
 71.62         44 
 71.64         41 
 71.66         51 
 71.68         54 
 71.7          47 
 71.72         62 
 71.74         37 
 71.76         49 
 71.78         43 
 71.8          46 
 71.82         53 
 71.84         60 
 71.86         46 
 71.88         55 
 71.9          52 
 71.92         44 
 71.94         48 
 71.96         54 
 71.98         44 
 72            26 
 72.02         31 
 72.04         35 
 72.06         39 
 72.08         37 
 72.1          34 
 72.12         42 
 72.14         39 
 72.16         40 
 72.18         40 
 72.2          35 
 72.22         33 
 72.24         40 
 72.26         31 
 72.28         30 
 72.3          35 
 72.32         29 
 72.34         34 
 72.36         43 
 72.38         35 
 72.4          38 
 72.42         33 
 72.44         33 
 72.46         28 
 72.48         35 
 72.5          38 
 72.52         34 
 72.54         41 
 72.56         26 
 72.58         41 
 72.6          38 
 72.62         32 
 72.64         37 
 72.66         39 
 72.68         35 
 72.7          32 
 72.72         29 
 72.74         47 
 72.76         38 
 72.78         39 
 72.8          41 
 72.82         34 
 72.84         43 
 72.86         35 
 72.88         39 
 72.9          44 
 72.92         34 
 72.94         43 
 72.96         47 
 72.98         41 
 73            37 
 73.02         44 
 73.04         39 
 73.06         31 
 73.08         41 
 73.1          48 
 73.12         44 
 73.14         42 
 73.16         37 
 73.18         33 
 73.2          39 
 73.22         30 
 73.24         27 
 73.26         37 
 73.28         32 
 73.3          25 
 73.32         38 
 73.34         36 
 73.36         33 
 73.38         51 
 73.4          35 
 73.42         33 
 73.44         35 
 73.46         33 
 73.48         35 
 73.5          31 
 73.52         49 
 73.54         31 
 73.56         46 
 73.58         34 
 73.6          46 
 73.62         38 
 73.64         35 
 73.66         41 
 73.68         34 
 73.7          46 
 73.72         29 
 73.74         41 
 73.76         19 
 73.78         35 
 73.8          35 
 73.82         27 
 73.84         36 
 73.86         36 
 73.88         39 
 73.9          34 
 73.92         36 
 73.93999      36 
 73.96         28 
 73.98         32 
 74            35 
 74.02         34 
 74.04         40 
 74.06         26 
 74.08         29 
 74.1          32 
 74.12         29 
 74.14         28 
 74.16         34 
 74.18         29 
 74.2          31 
 74.22         24 
 74.24         32 
 74.26         34 
 74.28         23 
 74.3          25 
 74.32         26 
 74.34         23 
 74.36         31 
 74.38         34 
 74.4          42 
 74.42         29 
 74.43999      18 
 74.46         25 
 74.48         32 
 74.5          38 
 74.52         25 
 74.54         31 
 74.56         22 
 74.58         43 
 74.6          24 
 74.62         28 
 74.64         30 
 74.66         19 
 74.68         35 
 74.7          27 
 74.72         25 
 74.74         31 
 74.76         21 
 74.78         23 
 74.8          34 
 74.82         31 
 74.84         22 
 74.86         38 
 74.88         19 
 74.9          20 
 74.92         27 
 74.93999      22 
 74.96         33 
 74.98         28 
 75            24 
