EC-Lab ASCII FILE
Nb header lines : 3                           
mode	ox/red	error	control changes	Ns changes	counter inc.	Ns	time/s	control/V/mA	Ewe/V	dq/mA.h	<I>/mA	P/W	(Q-Qo)/mA.h	x	Capacity/mA.h
1	0	0	1	1	0	1	104770,74	-0,300000012	4,18331718	0	0	0	0	0	0
1	0	0	1	0	0	1	104780,74	-0,300000012	4,04796648	-0,0008287951972867369	-0,29836037460276922	0,00120775285	-0,0008287951972867369	3,092346313776233E-005	0,0008287951972867369
1	0	0	1	0	0	1	104790,74	-0,300000012	4,03211355	-0,00083291199481652838	-0,29984239165682931	0,00120899861	-0,0016617071921032653	6,2000529526454323E-005	0,0016617071921032653
1	0	0	1	0	0	1	104800,74	-0,300000012	4,01992321	-0,00083290713956289818	-0,29984064380006931	0,00120533642	-0,0024946143316661632	9,3077414759105408E-005	0,0024946143316661632
1	0	0	1	0	0	1	104810,74	-0,300000012	4,00950718	-0,00083290381909741299	-0,2998394491821495	0,00120220846	-0,0033275181507635763	0,00012415417610072485	0,0033275181507635763
1	0	0	1	0	0	1	104820,74	-0,300000012	4,00139952	-0,00083291114247838643	-0,29984208593813958	0,00119978795	-0,0041604292932419629	0,00015523121068753478	0,0041604292932419629
1	0	0	1	0	0	1	104830,74	-0,300000012	3,99346352	-0,00083290983879400627	-0,29984161658264122	0,00119740656	-0,0049933391320359693	0,00018630819663212768	0,0049933391320359693
1	0	0	1	0	0	1	104840,74	-0,300000012	3,98560381	-0,0008329049381249481	-0,29983985130156186	0,00119504286	-0,0058262440701609178	0,00021738499972616899	0,0058262440701609178
1	0	0	1	0	0	1	104850,74	-0,300000012	3,9778204	-0,00083290115634103603	-0,29983848988626234	0,00119270361	-0,0066591452265019533	0,00024846166171676787	0,0066591452265019533
1	0	0	1	0	0	1	104860,74	-0,300000012	3,9709909	-0,000832902240741584	-0,29983888066764339	0,00119065749	-0,0074920474672435366	0,00027953836416780922	0,0074920474672435366
1	0	0	1	0	0	1	104870,74	-0,300000012	3,96460009	-0,00083290226370924058	-0,29983888964790138	0,0011887413	-0,008324949730952777	0,00031061506747580467	0,008324949730952777
1	0	0	1	0	0	1	104880,74	-0,300000012	3,95822835	-0,00083289822542832947	-0,29983743589550189	0,00118682499	-0,0091578479563811059	0,00034169162011010976	0,0091578479563811059
1	0	0	1	0	0	1	104890,74	-0,300000012	3,95095992	-0,00083289642636312384	-0,29983678740710867	0,00118464313	-0,0099907443827442291	0,00037276810561887322	0,0099907443827442291
1	0	0	1	0	0	1	104900,74	-0,300000012	3,94479823	-0,00083289570072789978	-0,29983652590435194	0,00118279457	-0,01082364008347213	0,00040384456405321088	0,01082364008347213
1	0	0	1	0	0	1	104910,74	-0,300000012	3,93989539	-0,0008329090346693993	-0,29984132611917005	0,00118134345	-0,011656549118141526	0,00043492151999483347	0,011656549118141526
1	0	0	1	0	0	1	104920,74	-0,300000012	3,93470645	-0,00083290766636033856	-0,29984083456386214	0,0011797857	-0,012489456784501867	0,00046599842488300544	0,012489456784501867
1	0	0	1	0	0	1	104930,74	-0,300000012	3,92944121	-0,00083290018604364672	-0,29983814170306816	0,0011781964	-0,013322356970545514	0,00049707505067050406	0,013322356970545514
1	0	0	1	0	0	1	104940,74	-0,300000012	3,92461467	-0,00083289616770048934	-0,2998366946115257	0,00117674354	-0,014155253138246003	0,0005281515265282169	0,014155253138246003
1	0	0	1	0	0	1	104950,74	-0,300000012	3,91957831	-0,0008329034434060256	-0,29983931321338528	0,00117524364	-0,014988156581652026	0,0005592282738522855	0,014988156581652026
1	0	0	1	0	0	1	104960,74	-0,300000012	3,91479015	-0,0008329088807321257	-0,29984127061209267	0,00117381569	-0,015821065462384154	0,00059030522405030144	0,015821065462384154
1	0	0	1	0	0	1	104970,74	-0,300000012	3,91009712	-0,00083290711260173056	-0,29984063499130842	0,00117240602	-0,016653972574985885	0,0006213821082769952	0,016653972574985885
1	0	0	1	0	0	1	104980,74	-0,300000012	3,90557599	-0,00083291638747354342	-0,29984397410955482	0,0011710634	-0,017486888962459427	0,00065245933856162637	0,017486888962459427
1	0	0	1	0	0	1	104990,74	-0,300000012	3,90134072	-0,00083291088690525952	-0,29984199374165178	0,00116978574	-0,018319799849364688	0,00068353636361265946	0,018319799849364688
1	0	0	1	0	0	1	105000,74	-0,300000012	3,89704847	-0,00083290674024654758	-0,29984050005251488	0,00116849295	-0,019152706589611232	0,00071461323394628045	0,019152706589611232
1	0	0	1	0	0	1	105010,74	-0,300000012	3,89273715	-0,00083291619088417946	-0,2998439022113271	0,00116721354	-0,019985622780495414	0,00074569045689589824	0,019985622780495414
1	0	0	1	0	0	1	105020,74	-0,300000012	3,88827324	-0,00083291638108260096	-0,29984397125385971	0,00116587523	-0,020818539161578016	0,00077676768694207488	0,020818539161578016
1	0	0	1	0	0	1	105030,74	-0,300000012	3,88411427	-0,00083292266172501773	-0,29984623278497862	0,00116463704	-0,021651461823303034	0,00080784515132746445	0,021651461823303034
1	0	0	1	0	0	1	105040,74	-0,300000012	3,88018441	-0,00083292711742387866	-0,29984783680487059	0,00116346485	-0,022484388940726915	0,00083892278196096922	0,022484388940726915
1	0	0	1	0	0	1	105050,74	-0,300000012	3,87596846	-0,00083291946327851878	-0,29984508036170368	0,00116219011	-0,02331730840400543	0,00087000012700801958	0,02331730840400543
1	0	0	1	0	0	1	105060,74	-0,300000012	3,8721149	-0,0008329206434239945	-0,29984550509397901	0,0011610362	-0,024150229047429427	0,00090107751608788429	0,024150229047429427
1	0	0	1	0	0	1	105070,74	-0,300000012	3,86801338	-0,00083291431553330688	-0,2998432273496775	0,00115979766	-0,024983143362962736	0,00093215466906563968	0,024983143362962736
1	0	0	1	0	0	1	105080,74	-0,300000012	3,86366391	-0,00083291345143649318	-0,299842917146632	0,00115849229	-0,025816056814399229	0,00096323178980278093	0,025816056814399229
1	0	0	1	0	0	1	105090,74	-0,300000012	3,86003923	-0,00083291589144534528	-0,29984379553246048	0,00115740881	-0,026648972705844573	0,00099430900157993306	0,026648972705844573
1	0	0	1	0	0	1	105100,74	-0,300000012	3,85654807	-0,00083291547324756774	-0,29984364430052019	0,00115636142	-0,027481888179092141	0,001025386197753564	0,027481888179092141
1	0	0	1	0	0	1	105110,74	-0,300000012	3,85259914	-0,00083291289511819674	-0,29984271575946022	0,00115517376	-0,028314801074210336	0,0010564632977337218	0,028314801074210336
1	0	0	1	0	0	1	105120,74	-0,300000012	3,84910822	-0,00083290720128847501	-0,29984066602083776	0,00115411915	-0,02914770827549881	0,0010875401852694371	0,02914770827549881
1	0	0	1	0	0	1	105130,74	-0,300000012	3,84527373	-0,00083291727975342016	-0,29984429524367942	0,0011529834	-0,02998062555525223	0,0011186174488462301	0,02998062555525223
1	0	0	1	0	0	1	105140,74	-0,300000012	3,84248853	-0,00083291583191189504	-0,29984377410171456	0,00115214626	-0,030813541387164128	0,0011496946584021091	0,030813541387164128
1	0	0	1	0	0	1	105150,74	-0,300000012	3,83930254	-0,00083291022017763712	-0,29984175355341408	0,00115118315	-0,031646451607341766	0,0011807716585766382	0,031646451607341766
1	0	0	1	0	0	1	105160,74	-0,300000012	3,83672714	-0,00083291103820668326	-0,29984204728583693	0,00115041214	-0,032479362645548454	0,0012118486892729309	0,032479362645548454
1	0	0	1	0	0	1	105170,74	-0,300000012	3,8334651	-0,00083291067321598528	-0,29984191589003744	0,00114943355	-0,033312273318764435	0,0012429257063509296	0,033312273318764435
1	0	0	1	0	0	1	105180,74	-0,300000012	3,83029819	-0,00083291549574169843	-0,29984365269450938	0,00114849058	-0,034145188814506138	0,0012740029033638469	0,034145188814506138
1	0	0	1	0	0	1	105190,74	-0,300000012	3,82737947	-0,00083291608992053402	-0,29984386698211654	0,00114761631	-0,034978104904426669	0,0013050801225463752	0,034978104904426669
1	0	0	1	0	0	1	105200,74	-0,300000012	3,82436538	-0,00083291158877644288	-0,2998422465603783	0,00114670629	-0,03581101649320311	0,0013361571737851656	0,03581101649320311
1	0	0	1	0	0	1	105210,74	-0,300000012	3,82140851	-0,00083290835613509018	-0,29984108176089261	0,00114581524	-0,036643924849338195	0,0013672341044097608	0,036643924849338195
1	0	0	1	0	0	1	105220,74	-0,300000012	3,81841326	-0,00083291335175103616	-0,29984288014708755	0,00114492408	-0,037476838201089235	0,0013983112214275037	0,037476838201089235
1	0	0	1	0	0	1	105230,74	-0,300000012	3,81536102	-0,00083292705766359974	-0,29984781461092461	0,00114402769	-0,038309765258752832	0,0014293888498312722	0,038309765258752832
1	0	0	1	0	0	1	105240,74	-0,300000012	3,81230879	-0,0008329201320790583	-0,29984532213391981	0,001143103	-0,039142685390831891	0,0014604662198321696	0,039142685390831891
1	0	0	1	0	0	1	105250,75	-0,300000012	3,80925632	-0,00083291804869472973	-0,29984457213038272	0,00114218483	-0,039975603439526624	0,0014915435120991968	0,039975603439526624
1	0	0	1	0	0	1	105260,75	-0,300000012	3,8065474	-0,00083291847045388493	-0,29984472312293824	0,00114137318	-0,040808521909980506	0,0015226208201026256	0,040808521909980506
1	0	0	1	0	0	1	105270,75	-0,300000012	3,80345702	-0,00083291055309938061	-0,29984187265240499	0,00114043569	-0,041641432463079885	0,0015536978326989123	0,041641432463079885
1	0	0	1	0	0	1	105280,75	-0,300000012	3,8006146	-0,00083291515920393997	-0,29984353092897043	0,0011395897	-0,042474347622283827	0,001584775017155153	0,042474347622283827
1	0	0	1	0	0	1	105290,75	-0,300000012	3,79790568	-0,0008329115567538473	-0,2998422350778489	0,00113877258	-0,043307259179037677	0,0016158520671991373	0,043307259179037677
1	0	0	1	0	0	1	105300,75	-0,300000012	3,79542565	-0,00083290512771573325	-0,29983992066986419	0,00113802007	-0,044140164306753408	0,0016469288773670659	0,044140164306753408
1	0	0	1	0	0	1	105310,75	-0,300000012	3,79246855	-0,00083290576711131469	-0,29984015031716429	0,00113713439	-0,044973070073864723	0,001678005711391703	0,044973070073864723
1	0	0	1	0	0	1	105320,75	-0,300000012	3,79012227	-0,00083290787964728154	-0,29984091022867187	0,00113643368	-0,045805977953512	0,0017090826242378976	0,045805977953512
1	0	0	1	0	0	1	105330,75	-0,300000012	3,78737521	-0,00083290717071460365	-0,29984065501795213	0,00113560911	-0,046638885124226605	0,0017401595106328608	0,046638885124226605
1	0	0	1	0	0	1	105340,75	-0,300000012	3,78441811	-0,00083291006818082598	-0,29984169899271814	0,00113472634	-0,047471795192407437	0,0017712365051361843	0,047471795192407437
1	0	0	1	0	0	1	105350,75	-0,300000012	3,7816329	-0,00083291567688352525	-0,29984371829522227	0,00113389886	-0,048304710869290957	0,0018023137089077462	0,048304710869290957
1	0	0	1	0	0	1	105360,75	-0,300000012	3,77915287	-0,00083291911967760998	-0,2998449574671655	0,00113315997	-0,04913762998896857	0,001833391041134585	0,04913762998896857
1	0	0	1	0	0	1	105370,75	-0,300000012	3,77674937	-0,00083292183410624653	-0,29984593373460819	0,00113244297	-0,049970551823074816	0,0018644684746404054	0,049970551823074816
1	0	0	1	0	0	1	105380,75	-0,300000012	3,77383041	-0,00083291951211624678	-0,29984509783473011	0,0011315645	-0,050803471335191066	0,001895545821509657	0,050803471335191066
1	0	0	1	0	0	1	105390,75	-0,300000012	3,77196097	-0,00083292452992167731	-0,29984690479540384	0,00113101082	-0,051636395865112742	0,0019266233555999757	0,051636395865112742
1	0	0	1	0	0	1	105400,75	-0,300000012	3,76877499	-0,00083292218245731456	-0,2998460602555056	0,00113005238	-0,052469318047570054	0,0019577008021032429	0,052469318047570054
1	0	0	1	0	0	1	105410,75	-0,300000012	3,76633334	-0,0008329235740188096	-0,29984656120425357	0,0011293221	-0,053302241621588864	0,0019887783005275405	0,053302241621588864
1	0	0	1	0	0	1	105420,75	-0,300000012	3,76314735	-0,0008329173721339968	-0,29984432756455482	0,00112835842	-0,054135158993722861	0,0020198555675511773	0,054135158993722861
1	0	0	1	0	0	1	105430,75	-0,300000012	3,76070547	-0,00083291678304970278	-0,29984411538670195	0,00112762535	-0,05496807577677257	0,0020509328125952867	0,05496807577677257
1	0	0	1	0	0	1	105440,75	-0,300000012	3,75866437	-0,0008329218220677641	-0,29984592966263494	0,00112702022	-0,055800997598840326	0,002082010245651935	0,055800997598840326
1	0	0	1	0	0	1	105450,75	-0,300000012	3,75685191	-0,00083292470777697037	-0,29984696934912589	0,00112648064	-0,056633922306617299	0,0021130877863782736	0,056633922306617299
1	0	0	1	0	0	1	105460,75	-0,300000012	3,75353265	-0,00083291549427807322	-0,29984365255506803	0,00112547295	-0,057466837800895373	0,0021441649833365811	0,057466837800895373
1	0	0	1	0	0	1	105470,75	-0,300000012	3,75048018	-0,00083291505219042291	-0,29984349272250746	0,00112455711	-0,058299752853085798	0,0021752421638000038	0,058299752853085798
1	0	0	1	0	0	1	105480,75	-0,300000012	3,74824834	-0,00083291869528094925	-0,29984480377634451	0,00112389284	-0,059132671548366733	0,002206319480192032	0,059132671548366733
1	0	0	1	0	0	1	105490,75	-0,300000012	3,74536777	-0,00083291822415424717	-0,29984463417452026	0,00112302846	-0,059965589772520986	0,0022373967790056899	0,059965589772520986
1	0	0	1	0	0	1	105500,75	-0,300000012	3,74273515	-0,0008329151323785385	-0,29984352223235955	0,00112223485	-0,06079850490489952	0,0022684739624610387	0,06079850490489952
1	0	0	1	0	0	1	105510,75	-0,300000012	3,7401979	-0,0008329136512031159	-0,29984298906119507	0,0011214721	-0,06163141855610263	0,0022995510906517411	0,06163141855610263
1	0	0	1	0	0	1	105520,75	-0,300000012	3,73741269	-0,00083291391578151117	-0,29984308394451654	0,0011206374	-0,062464332471884147	0,0023306282287142195	0,062464332471884147
1	0	0	1	0	0	1	105530,75	-0,300000012	3,73516154	-0,00083291360208061005	-0,29984297026133504	0,00111996196	-0,063297246073964749	0,0023617053550720954	0,063297246073964749
1	0	0	1	0	0	1	105540,75	-0,300000012	3,73214746	-0,00083291981566117862	-0,29984520710525517	0,0011190665	-0,064130165889625933	0,0023927827132670166	0,064130165889625933
1	0	0	1	0	0	1	105550,75	-0,300000012	3,7296102	-0,00083291593915058509	-0,2998438123429879	0,0011183006	-0,064963081828776512	0,0024238599268241152	0,064963081828776512
1	0	0	1	0	0	1	105560,75	-0,300000012	3,72714925	-0,00083291418758862554	-0,29984318215790797	0,00111756031	-0,065795996016365146	0,0024549370750280826	0,065795996016365146
1	0	0	1	0	0	1	105570,75	-0,300000012	3,72409678	-0,00083290670679344077	-0,29984048906726618	0,00111663505	-0,066628902723158579	0,0024860139441135232	0,066628902723158579
1	0	0	1	0	0	1	105580,75	-0,300000012	3,72165513	-0,00083290380887521638	-0,29983944477620294	0,00111589895	-0,067461806532033792	0,0025170907050737386	0,067461806532033792
1	0	0	1	0	0	1	105590,75	-0,300000012	3,71881247	-0,00083290359450545574	-0,29983936760461446	0,00111504633	-0,068294710126539251	0,0025481674580355302	0,068294710126539251
1	0	0	1	0	0	1	105600,75	-0,300000012	3,71587467	-0,00083291505286428672	-0,29984349296509363	0,00111418089	-0,069127625179403533	0,0025792446385240954	0,069127625179403533
1	0	0	1	0	0	1	105610,75	-0,300000012	3,71305132	-0,00083291598775982861	-0,29984383020498931	0,00111333549	-0,069960541167163354	0,0026103218538948704	0,069960541167163354
1	0	0	1	0	0	1	105620,75	-0,300000012	3,71036148	-0,00083291148600147827	-0,29984220960749939	0,00111252302	-0,070793452653164838	0,0026413989012989888	0,070793452653164838
1	0	0	1	0	0	1	105630,75	-0,300000012	3,70717549	-0,00083291893196602662	-0,29984488923610093	0,00111157761	-0,071626371585130854	0,0026724762265220554	0,071626371585130854
1	0	0	1	0	0	1	105640,75	-0,300000012	3,70481014	-0,00083291401548021376	-0,2998431190848688	0,00111086178	-0,072459285600611072	0,0027035533683044266	0,072459285600611072
1	0	0	1	0	0	1	105650,75	-0,300000012	3,70231104	-0,00083290818420383654	-0,29984101997856192	0,00111010473	-0,073292193784814912	0,0027346302925140355	0,073292193784814912
1	0	0	1	0	0	1	105660,75	-0,300000012	3,69971657	-0,00083290494798786112	-0,29983985596910886	0,00110932253	-0,074125098732802778	0,0027657070959760755	0,074125098732802778
1	0	0	1	0	0	1	105670,75	-0,300000012	3,69674063	-0,00083290432909462182	-0,29983963317194554	0,00110842939	-0,074958003061897395	0,0027967838763463766	0,074958003061897395
1	0	0	1	0	0	1	105680,75	-0,300000012	3,69420338	-0,00083290454353392115	-0,29983970982404589	0,00110766885	-0,075790907605431322	0,002827860664717696	0,075790907605431322
1	0	0	1	0	0	1	105690,75	-0,300000012	3,69113183	-0,00083290276969969267	-0,29983907068389901	0,00110674556	-0,076623810375131008	0,0028589373869048755	0,076623810375131008
1	0	0	1	0	0	1	105700,75	-0,300000012	3,68806052	-0,0008329131224453449	-0,29984279759168915	0,00110583834	-0,077456723497576358	0,0028900144953669146	0,077456723497576358
1	0	0	1	0	0	1	105710,75	-0,300000012	3,68533254	-0,0008329262847933504	-0,29984753685785741	0,00110503787	-0,078289649782369715	0,0029210920949338554	0,078289649782369715
1	0	0	1	0	0	1	105720,75	-0,300000012	3,68222284	-0,00083292542525298061	-0,29984722764585728	0,00110410433	-0,079122575207622694	0,0029521696624301888	0,079122575207622694
1	0	0	1	0	0	1	105730,75	-0,300000012	3,67878914	-0,00083292770980960806	-0,29984804983960973	0,00110307778	-0,079955502917432307	0,0029832473151664019	0,079955502917432307
1	0	0	1	0	0	1	105740,75	-0,300000012	3,67625189	-0,00083292998377978803	-0,29984886755909523	0,00110231992	-0,080788432901212096	0,0030143250527474995	0,080788432901212096
1	0	0	1	0	0	1	105750,75	-0,300000012	3,67356205	-0,00083292238790127962	-0,29984613309687968	0,00110150338	-0,081621355289113382	0,0030454025069161574	0,081621355289113382
1	0	0	1	0	0	1	105760,76	-0,300000012	3,6707387	-0,00083291839507553318	-0,2998446962944393	0,00110065157	-0,082454273684188902	0,0030764798121071181	0,082454273684188902
1	0	0	1	0	0	1	105770,76	-0,300000012	3,66793442	-0,00083291273317072128	-0,29984265857955443	0,00109980325	-0,083287186417359629	0,0031075569060447981	0,083287186417359629
1	0	0	1	0	0	1	105780,76	-0,300000012	3,66520619	-0,00083291056881348288	-0,29984187942634592	0,00109898229	-0,08412009698617312	0,003138633919227399	0,08412009698617312
1	0	0	1	0	0	1	105790,76	-0,300000012	3,66171527	-0,00083290805016954739	-0,29984097171320941	0,00109793223	-0,084953005036342669	0,0031697108384360083	0,084953005036342669
1	0	0	1	0	0	1	105800,76	-0,300000012	3,6583004	-0,0008329089083058967	-0,29984128053496352	0,00109690952	-0,085785913944648563	0,0032007877896628384	0,085785913944648563
1	0	0	1	0	0	1	105810,76	-0,300000012	3,65501928	-0,00083291258515583142	-0,29984260445402253	0,00109593046	-0,08661882652980439	0,0032318648780778842	0,08661882652980439
1	0	0	1	0	0	1	105820,76	-0,300000012	3,65196681	-0,00083291301749646669	-0,29984276093130957	0,00109501579	-0,087451739547300864	0,0032629419826241395	0,087451739547300864
1	0	0	1	0	0	1	105830,76	-0,300000012	3,64876199	-0,00083291660959687488	-0,29984405406190221	0,00109405955	-0,088284656156897728	0,0032940192211964909	0,088284656156897728
1	0	0	1	0	0	1	105840,76	-0,300000012	3,64580512	-0,00083292000467909709	-0,29984527556923155	0,00109317747	-0,089117576161576819	0,0033250965864439245	0,089117576161576819
1	0	0	1	0	0	1	105850,76	-0,300000012	3,64208508	-0,00083292604024377126	-0,2998474479106983	0,0010920699	-0,089950502201820608	0,003356174176886391	0,089950502201820608
1	0	0	1	0	0	1	105860,76	-0,300000012	3,63897538	-0,0008329188340223497	-0,2998448537222615	0,0010911281	-0,090783421035842957	0,0033872514984550483	0,090783421035842957
1	0	0	1	0	0	1	105870,76	-0,300000012	3,63542724	-0,00083290873356329062	-0,29984121870395578	0,00109005091	-0,091616329769406246	0,0034183284431619968	0,091616329769406246
1	0	0	1	0	0	1	105880,76	-0,300000012	3,63218403	-0,00083290675927201894	-0,29984050801502957	0,00108907593	-0,092449236528678259	0,0034494053142054835	0,092449236528678259
1	0	0	1	0	0	1	105890,76	-0,300000012	3,62840676	-0,00083290333576334848	-0,29983927518576128	0,0010879389	-0,0932821398644416	0,0034804820575132595	0,0932821398644416
1	0	0	1	0	0	1	105900,76	-0,300000012	3,62495399	-0,00083290964953435802	-0,29984154737237178	0,00108691177	-0,094115049513975962	0,0035115590363963206	0,094115049513975962
1	0	0	1	0	0	1	105910,76	-0,300000012	3,62172985	-0,00083290919082860147	-0,29984138224112698	0,00108594447	-0,094947958704804557	0,0035426359981644525	0,094947958704804557
1	0	0	1	0	0	1	105920,76	-0,300000012	3,61810541	-0,00083291367500689293	-0,29984299727085747	0,00108486356	-0,095780872379811443	0,0035737131272433056	0,095780872379811443
1	0	0	1	0	0	1	105930,76	-0,300000012	3,61470962	-0,0008329108620434999	-0,29984198498444813	0,00108384166	-0,09661378324185495	0,003604790151366713	0,09661378324185495
1	0	0	1	0	0	1	105940,76	-0,300000012	3,61091328	-0,00083291819110016026	-0,29984462332202246	0,0010827129	-0,09744670143295511	0,003635867448947079	0,09744670143295511
1	0	0	1	0	0	1	105950,76	-0,300000012	3,60719323	-0,00083291795688702003	-0,29984453796152922	0,00108159718	-0,098279619389842125	0,0036669447377886368	0,098279619389842125
1	0	0	1	0	0	1	105960,76	-0,300000012	3,60379767	-0,0008329180269903607	-0,29984456319648781	0,00108057912	-0,099112537416832486	0,0036980220292458445	0,099112537416832486
1	0	0	1	0	0	1	105970,76	-0,300000012	3,59988689	-0,0008329116265045271	-0,29984225951392045	0,00107939821	-0,099945449043337011	0,00372909908189232	0,099945449043337011
1	0	0	1	0	0	1	105980,76	-0,300000012	3,59645295	-0,00083291159103479654	-0,29984224741525626	0,00107836851	-0,10077836063437181	0,0037601761332153728	0,10077836063437181
1	0	0	1	0	0	1	105990,76	-0,300000012	3,59242773	-0,00083291099117034022	-0,29984203146831936	0,00107716082	-0,10161127162554214	0,0037912531621566765	0,10161127162554214
1	0	0	1	0	0	1	106000,76	-0,300000012	3,58863139	-0,0008329169951528311	-0,29984419199713107	0,00107603031	-0,10244418862069498	0,0038223304151146387	0,10244418862069498
1	0	0	1	0	0	1	106010,76	-0,300000012	3,58437729	-0,00083291045303311603	-0,29984183662926176	0,00107474625	-0,1032770990737281	0,0038534074239773184	0,1032770990737281
1	0	0	1	0	0	1	106020,76	-0,300000012	3,58037114	-0,00083290954905251661	-0,29984151132833773	0,00107354391	-0,10411000862278061	0,0038844843991112672	0,10411000862278061
1	0	0	1	0	0	1	106030,76	-0,300000012	3,57623148	-0,00083290442508624653	-0,29983966772824749	0,00107229606	-0,10494291304786686	0,003915561183063145	0,10494291304786686
1	0	0	1	0	0	1	106040,76	-0,300000012	3,57253051	-0,00083291110634307059	-0,29984207293317357	0,001071195	-0,10577582415420994	0,0039466382163016979	0,10577582415420994
1	0	0	1	0	0	1	106050,76	-0,300000012	3,5686388	-0,00083291009770830477	-0,29984170928730778	0,00107002677	-0,10660873425191824	0,0039777152119067309	0,10660873425191824
1	0	0	1	0	0	1	106060,76	-0,300000012	3,56440377	-0,00083290547088450842	-0,2998400430912128	0,00106875098	-0,10744163972280274	0,0040087920348787482	0,10744163972280274
1	0	0	1	0	0	1	106070,76	-0,300000012	3,55999684	-0,00083290284518069696	-0,29983909785652352	0,00106742629	-0,10827454256798344	0,0040398687598822253	0,10827454256798344
1	0	0	1	0	0	1	106080,76	-0,300000012	3,55564737	-0,00083290923928221069	-0,29984140060907578	0,00106613024	-0,10910745180726565	0,0040709457234582266	0,10910745180726565
1	0	0	1	0	0	1	106090,76	-0,300000012	3,5512979	-0,00083291016785634893	-0,29984173508463014	0,00106482732	-0,109940361975122	0,0041020227216805786	0,109940361975122
1	0	0	1	0	0	1	106100,76	-0,300000012	3,54692912	-0,00083290679243538125	-0,29984051973370042	0,0010635131	-0,11077326876755738	0,0041330995939614342	0,11077326876755738
1	0	0	1	0	0	1	106110,76	-0,300000012	3,54189277	-0,00083290022625194662	-0,299838155060808	0,00106199458	-0,11160616899380931	0,004164176221249159	0,11160616899380931
1	0	0	1	0	0	1	106120,76	-0,300000012	3,53744793	-0,00083290564794838426	-0,29984010683294829	0,00106066873	-0,11243907464175771	0,0041952530508276672	0,11243907464175771
1	0	0	1	0	0	1	106130,76	-0,300000012	3,53277421	-0,00083291289823253952	-0,29984271749799418	0,00105927663	-0,11327198753999024	0,0042263301509240256	0,11327198753999024
1	0	0	1	0	0	1	106140,76	-0,300000012	3,52792859	-0,00083292613284289843	-0,29984748236621267	0,00105784053	-0,11410491367283314	0,0042574077448214893	0,11410491367283314
1	0	0	1	0	0	1	106150,76	-0,300000012	3,52304482	-0,00083292027358876326	-0,29984537307640691	0,0010563687	-0,1149378339464219	0,0042884851201023046	0,1149378339464219
1	0	0	1	0	0	1	106160,76	-0,300000012	3,51818013	-0,00083292757657335859	-0,29984800107964621	0,00105491932	-0,11577076152299525	0,0043195627678672941	0,11577076152299525
1	0	0	1	0	0	1	106170,76	-0,300000012	3,5128386	-0,00083293368455933197	-0,29985019981339866	0,00105332537	-0,11660369520755459	0,0043506406435294522	0,11660369520755459
1	0	0	1	0	0	1	106180,76	-0,300000012	3,50814581	-0,00083292331078317427	-0,29984646562100582	0,0010519051	-0,11743661851833776	0,0043817181321320742	0,11743661851833776
1	0	0	1	0	0	1	106190,76	-0,300000012	3,50259447	-0,00083292929240730074	-0,29984861978692032	0,00105024816	-0,11826954781074506	0,0044127958439171347	0,11826954781074506
1	0	0	1	0	0	1	106200,76	-0,300000012	3,4974246	-0,00083292533047166131	-0,29984719351478477	0,00104869297	-0,11910247314121674	0,0044438734078770502	0,11910247314121674
1	0	0	1	0	0	1	106210,76	-0,300000012	3,49164414	-0,00083291508303913805	-0,29984350379990086	0,00104694685	-0,11993538822425587	0,004474950589491479	0,11993538822425587
1	0	0	1	0	0	1	106220,76	-0,300000012	3,48647428	-0,00083290722910397581	-0,29984067603422016	0,00104538677	-0,12076829545335984	0,0045060274780650285	0,12076829545335984
1	0	0	1	0	0	1	106230,76	-0,300000012	3,48046517	-0,00083291916575862298	-0,29984497314495942	0,00104360003	-0,12160121461911846	0,0045371048120112109	0,12160121461911846
1	0	0	1	0	0	1	106240,76	-0,300000012	3,47478008	-0,00083291950901349376	-0,29984509780333382	0,00104189583	-0,12243413412813197	0,0045681821587646957	0,12243413412813197
1	0	0	1	0	0	1	106250,76	-0,300000012	3,4688282	-0,00083291597081555264	-0,2998438241051705	0,00104010676	-0,1232670500989475	0,0045992593735032563	0,1232670500989475
1	0	0	1	0	0	1	106260,76	-0,300000012	3,46255183	-0,0008329187969598505	-0,29984484110606701	0,00103822828	-0,12409996889590738	0,0046303366936890618	0,12409996889590738
1	0	0	1	0	0	1	106270,77	-0,300000012	3,45677161	-0,00083291760234038029	-0,29984441032551635	0,00103649369	-0,12493288649824773	0,0046614139693020083	0,12493288649824773
1	0	0	1	0	0	1	106280,77	-0,300000012	3,45089579	-0,00083292045742770035	-0,29984543813663654	0,00103473535	-0,12576580695567544	0,0046924913514421005	0,12576580695567544
1	0	0	1	0	0	1	106290,77	-0,300000012	3,44473386	-0,00083292108721699981	-0,29984566562467021	0,00103288854	-0,12659872804289243	0,0047235687570804794	0,12659872804289243
1	0	0	1	0	0	1	106300,77	-0,300000012	3,43889642	-0,00083291248890426419	-0,29984257064231341	0,00103112753	-0,1274316405317967	0,0047546458419042483	0,1274316405317967
1	0	0	1	0	0	1	106310,77	-0,300000012	3,43248653	-0,00083291323584483725	-0,29984283945139616	0,00102920656	-0,12826455376764154	0,0047857229545973754	0,12826455376764154
1	0	0	1	0	0	1	106320,77	-0,300000012	3,42554259	-0,00083291466738118067	-0,29984335376196045	0,00102712621	-0,1290974684350227	0,0048168001207030477	0,1290974684350227
1	0	0	1	0	0	1	106330,77	-0,300000012	3,41926622	-0,00083290892975197901	-0,29984128825540058	0,00102523714	-0,1299303773647747	0,0048478770727300602	0,1299303773647747
1	0	0	1	0	0	1	106340,77	-0,300000012	3,41249394	-0,0008329148376997975	-0,29984341552137069	0,00102321384	-0,13076329220247448	0,0048789542451905491	0,13076329220247448
1	0	0	1	0	0	1	106350,77	-0,300000012	3,40577888	-0,00083290739897886912	-0,29984073830668998	0,00102119124	-0,13159619960145336	0,004910031140102359	0,13159619960145336
1	0	0	1	0	0	1	106360,77	-0,300000012	3,39893031	-0,00083290383021036787	-0,29983945357367258	0,00101913337	-0,13242910343166373	0,0049411079018586176	0,13242910343166373
1	0	0	1	0	0	1	106370,77	-0,300000012	3,3917191	-0,00083289747989674406	-0,29983716662633958	0,00101696339	-0,13326200091156046	0,0049721844266761363	0,13326200091156046
1	0	0	1	0	0	1	106380,77	-0,300000012	3,38471794	-0,00083291017972926298	-0,29984173823832877	0,00101487967	-0,13409491109128971	0,0050032614253414816	0,13409491109128971
1	0	0	1	0	0	1	106390,77	-0,300000012	3,37811732	-0,00083291289516952307	-0,29984271591712339	0,00101290387	-0,13492782398645922	0,0050343385253235539	0,13492782398645922
1	0	0	1	0	0	1	106400,77	-0,300000012	3,37082982	-0,00083291287631293133	-0,29984271010624122	0,00101071876	-0,13576073686277216	0,0050654156246020621	0,13576073686277216
1	0	0	1	0	0	1	106410,77	-0,300000012	3,3635807	-0,00083291040583948301	-0,29984182075686541	0,00100854214	-0,13659364726861165	0,0050964926317038848	0,13659364726861165
1	0	0	1	0	0	1	106420,77	-0,300000012	3,35614061	-0,00083290958272251814	-0,2998415238821264	0,00100631034	-0,13742655685133418	0,0051275696080941062	0,13742655685133418
1	0	0	1	0	0	1	106430,77	-0,300000012	3,34910131	-0,00083290611945258253	-0,29984027657110464	0,00100419542	-0,13825946297078675	0,0051586464552650701	0,13825946297078675
1	0	0	1	0	0	1	106440,77	-0,300000012	3,34150863	-0,00083290774171551066	-0,29984086057421581	0,00100192078	-0,13909237071250227	0,0051897233629648448	0,13909237071250227
1	0	0	1	0	0	1	106450,77	-0,300000012	3,33412576	-0,00083291274932854707	-0,29984266421474778	0,0009997132	-0,1399252834618308	0,0052208004575053939	0,1399252834618308
1	0	0	1	0	0	1	106460,77	-0,300000012	3,32680035	-0,00083291594710614938	-0,29984381557344461	0,000997520518	-0,14075819940893698	0,0052518776713593267	0,14075819940893698
1	0	0	1	0	0	1	106470,77	-0,300000012	3,31922674	-0,00083291441009607578	-0,29984326202339392	0,000995247741	-0,14159111381903306	0,0052829548278653459	0,14159111381903306
1	0	0	1	0	0	1	106480,77	-0,300000012	3,31199646	-0,00083291669342418509	-0,2998440831256439	0,000993082533	-0,14242403051245725	0,005314032069565408	0,14242403051245725
1	0	0	1	0	0	1	106490,77	-0,300000012	3,30406046	-0,00083290936177306701	-0,29984144378340883	0,000990694272	-0,14325693987423032	0,0053451090377117088	0,14325693987423032
1	0	0	1	0	0	1	106500,77	-0,300000012	3,29665875	-0,00083291389089822771	-0,29984307485057946	0,000988480286	-0,14408985376512856	0,0053761861748457581	0,14408985376512856
1	0	0	1	0	0	1	106510,77	-0,300000012	3,288589	-0,00083291515196363123	-0,29984352932779475	0,000986062107	-0,14492276891709219	0,0054072633590318528	0,14492276891709219
1	0	0	1	0	0	1	106520,77	-0,300000012	3,28149247	-0,00083290867048667546	-0,2998411960422	0,000983926584	-0,14575567758757888	0,0054383403013853286	0,14575567758757888
1	0	0	1	0	0	1	106530,77	-0,300000012	3,27380443	-0,00083291632991201344	-0,2998439523336601	0,000981630408	-0,14658859391749088	0,0054694175295222618	0,14658859391749088
1	0	0	1	0	0	1	106540,77	-0,300000012	3,26621175	-0,00083291360210047834	-0,29984297027110541	0,000979350647	-0,14742150751959136	0,0055004946558808787	0,14742150751959136
1	0	0	1	0	0	1	106550,77	-0,300000012	3,25839019	-0,00083291437849236851	-0,29984325005986912	0,000977006275	-0,14825442189808371	0,0055315718112077216	0,14825442189808371
1	0	0	1	0	0	1	106560,77	-0,300000012	3,25079775	-0,00083292325758271744	-0,29984644729300218	0,000974740135	-0,14908734515566643	0,0055626492978253626	0,14908734515566643
1	0	0	1	0	0	1	106570,77	-0,300000012	3,243186	-0,00083291636599103603	-0,29984396636902381	0,00097244978	-0,14992026152165747	0,0055937265273084525	0,14992026152165747
1	0	0	1	0	0	1	106580,77	-0,300000012	3,23528814	-0,00083291605004337101	-0,2998438519040729	0,000970081252	-0,15075317757170083	0,0056248037450031104	0,15075317757170083
1	0	0	1	0	0	1	106590,77	-0,300000012	3,2275238	-0,00083290977521737421	-0,29984159261692704	0,000967745902	-0,15158608734691824	0,0056558807285755744	0,15158608734691824
1	0	0	1	0	0	1	106600,77	-0,300000012	3,21924448	-0,00083291897394756467	-0,29984490409434323	0,000965274055	-0,15241900632086579	0,0056869580553650291	0,15241900632086579
1	0	0	1	0	0	1	106610,77	-0,300000012	3,21167088	-0,00083293399154974362	-0,29985031141335405	0,000963020488	-0,15325194031241555	0,0057180359424814118	0,15325194031241555
1	0	0	1	0	0	1	106620,77	-0,300000012	3,20381117	-0,00083293378074632755	-0,29985023555354906	0,000960663543	-0,15408487409316189	0,0057491138217324365	0,15408487409316189
1	0	0	1	0	0	1	106630,77	-0,300000012	3,19581795	-0,00083292840129468173	-0,29984829858431373	0,000958260556	-0,15491780249445654	0,005780191500268887	0,15491780249445654
1	0	0	1	0	0	1	106640,77	-0,300000012	3,18797731	-0,00083292582026123994	-0,29984736871855226	0,00095590658	-0,15575072831471779	0,0058112690825035098	0,15575072831471779
1	0	0	1	0	0	1	106650,77	-0,300000012	3,17977405	-0,0008329253688769207	-0,29984720622340915	0,000953446375	-0,15658365368359469	0,0058423466478963763	0,15658365368359469
1	0	0	1	0	0	1	106660,77	-0,300000012	3,17099881	-0,00083292054805656269	-0,29984547153380294	0,000950809626	-0,15741657423165126	0,0058734240334179533	0,15741657423165126
1	0	0	1	0	0	1	106670,77	-0,300000012	3,16304374	-0,00083292254810035226	-0,29984619188090739	0,000948426605	-0,15824949677975162	0,0059045014935638541	0,15824949677975162
1	0	0	1	0	0	1	106680,77	-0,300000012	3,15447807	-0,00083292473822666547	-0,29984698022746118	0,000945860753	-0,15908242151797827	0,0059355790354263117	0,15908242151797827
1	0	0	1	0	0	1	106690,77	-0,300000012	3,1462369	-0,00083291648825009664	-0,29984400926137773	0,000943380292	-0,15991533800622838	0,0059666562694710515	0,15991533800622838
1	0	0	1	0	0	1	106700,77	-0,300000012	3,13759494	-0,0008329206292264992	-0,29984549998341805	0,000940793718	-0,16074825863545485	0,0059977336580211891	0,16074825863545485
1	0	0	1	0	0	1	106710,77	-0,300000012	3,12920117	-0,00083291220751901466	-0,29984246870336288	0,000938267389	-0,16158117084297389	0,0060288107323460966	0,16158117084297389
1	0	0	1	0	0	1	106720,77	-0,300000012	3,12023497	-0,00083291058709224064	-0,29984188600307814	0,000935577147	-0,16241408143006611	0,0060598877462107021	0,16241408143006611
1	0	0	1	0	0	1	106730,77	-0,300000012	3,11086822	-0,0008329086529976791	-0,2998411897427952	0,000932766416	-0,16324699008306378	0,0060909646879116403	0,16324699008306378
1	0	0	1	0	0	1	106740,77	-0,300000012	3,10142517	-0,00083290904756221504	-0,2998413309053495	0,000929935428	-0,16407989913062602	0,0061220416443343104	0,16407989913062602
1	0	0	1	0	0	1	106750,77	-0,300000012	3,09221101	-0,00083291499083737523	-0,29984347020301632	0,000927179295	-0,16491281412146339	0,0061531188225085696	0,16491281412146339
1	0	0	1	0	0	1	106760,77	-0,300000012	3,08236718	-0,0008329143904430999	-0,29984325421893414	0,000924227003	-0,1657457285119065	0,0061841959782813107	0,1657457285119065
1	0	0	1	0	0	1	106770,78	-0,300000012	3,07258081	-0,00083291512185169587	-0,29984351848422163	0,000921293453	-0,16657864363375818	0,0062152731613438874	0,16657864363375818
1	0	0	1	0	0	1	106780,78	-0,300000012	3,06212664	-0,0008329163077225289	-0,29984394538928518	0,000918160134	-0,1674115599414807	0,0062463503886529024	0,1674115599414807
1	0	0	1	0	0	1	106790,78	-0,300000012	3,05209208	-0,00083292215462194547	-0,29984604966251258	0,000915157725	-0,16824448209610266	0,0062774278341175936	0,16824448209610266
1	0	0	1	0	0	1	106800,78	-0,300000012	3,04167604	-0,0008329142319990528	-0,29984319703011027	0,000912025862	-0,1690773963281017	0,0063085049839785741	0,1690773963281017
1	0	0	1	0	0	1	106810,78	-0,300000012	3,03097391	-0,00083291878193947994	-0,29984483497628954	0,000908821879	-0,16991031511004118	0,0063395823036039475	0,16991031511004118
1	0	0	1	0	0	1	106820,78	-0,300000012	3,02008104	-0,00083291610279844864	-0,29984387145401722	0,000905552821	-0,17074323121283962	0,0063706595232669683	0,17074323121283962
1	0	0	1	0	0	1	106830,78	-0,300000012	3,00901628	-0,00083291435588730701	-0,29984324274598131	0,00090223318	-0,17157614556872694	0,0064017366777503859	0,17157614556872694
1	0	0	1	0	0	1	106840,78	-0,300000012	2,99776101	-0,00083290442840092698	-0,29983966867019117	0,000898847647	-0,17240904999712787	0,0064328134618259379	0,17240904999712787
1	0	0	1	0	0	1	106850,78	-0,300000012	2,98587608	-0,00083290558807386291	-0,29984008527854656	0,000895285339	-0,17324195558520173	0,0064638902891704474	0,17324195558520173
1	0	0	1	0	0	1	106860,78	-0,300000012	2,97353315	-0,00083290309570895296	-0,29983918804491309	0,00089158176	-0,17407485868091069	0,0064949670235214707	0,17407485868091069
1	0	0	1	0	0	1	106870,78	-0,300000012	2,96128583	-0,00083290965414709517	-0,29984154966427693	0,00088791654	-0,17490776833505779	0,00652604400257664	0,17490776833505779
1	0	0	1	0	0	1	106880,78	-0,300000012	2,94844699	-0,00083290577514635187	-0,29984015374028109	0,000884062785	-0,17574067411020413	0,0065571208369010752	0,17574067411020413
1	0	0	1	0	0	1	106890,78	-0,300000012	2,93568444	-0,0008329076230078935	-0,2998408189572903	0,000880238018	-0,17657358173321203	0,0065881977401717094	0,17657358173321203
1	0	0	1	0	0	1	106900,78	-0,300000012	2,92200637	-0,00083290633106066112	-0,29984035281831795	0,000876135426	-0,1774064880642727	0,0066192745952380544	0,1774064880642727
1	0	0	1	0	0	1	106910,78	-0,300000012	2,90815639	-0,00083291080119543616	-0,29984196196521965	0,000871987315	-0,17823939886546813	0,0066503516170911386	0,17823939886546813
1	0	0	1	0	0	1	106920,78	-0,300000012	2,8944211	-0,00083291760776109158	-0,29984441258759539	0,000867875991	-0,17907231647322922	0,0066814288929063386	0,17907231647322922
1	0	0	1	0	0	1	106930,78	-0,300000012	2,87997985	-0,00083291234439114726	-0,2998425186216736	0,000863540394	-0,17990522881762035	0,0067125059723381299	0,17990522881762035
1	0	0	1	0	0	1	106940,78	-0,300000012	2,86483264	-0,00083291104514565734	-0,2998420509025401	0,000858997286	-0,18073813986276602	0,0067435830032933248	0,18073813986276602
1	0	0	1	0	0	1	106950,78	-0,300000012	2,84947586	-0,00083291195021569728	-0,29984237599528019	0,000854393584	-0,18157105181298173	0,0067746600680179008	0,18157105181298173
1	0	0	1	0	0	1	106960,78	-0,300000012	2,83364201	-0,00083290777491364224	-0,29984087252530694	0,000849641685	-0,18240395958789536	0,0068057369769563418	0,18240395958789536
1	0	0	1	0	0	1	106970,78	-0,300000012	2,81752181	-0,00083290824616452058	-0,29984104217227002	0,000844808703	-0,1832368678340599	0,0068368139034777882	0,1832368678340599
1	0	0	1	0	0	1	106980,78	-0,300000012	2,80096316	-0,00083290972234639859	-0,29984157470421741	0,000839845219	-0,1840697775564063	0,0068678908850775642	0,1840697775564063
1	0	0	1	0	0	1	106990,78	-0,300000012	2,78434706	-0,00083290579661395802	-0,29984016146497606	0,000834859093	-0,18490268335302026	0,006898967720202985	0,18490268335302026
1	0	0	1	0	0	1	107000,78	-0,300000012	2,76672006	-0,00083290395252406605	-0,29983949720083322	0,000829571974	-0,18573558730554432	0,0069300444865229312	0,18573558730554432
1	0	0	1	0	0	1	107010,78	-0,300000012	2,74888301	-0,00083291439737545126	-0,29984325656094643	0,000824234041	-0,18656850170291978	0,006961121642554327	0,18656850170291978
1	0	0	1	0	0	1	107020,78	-0,300000012	2,73064542	-0,00083292437073257229	-0,29984684689854592	0,000818775443	-0,18740142607365235	0,0069921991707050867	0,18740142607365235
1	0	0	1	0	0	1	107030,78	-0,300000012	2,71240783	-0,00083292152132093901	-0,29984582192648832	0,000813304156	-0,18823434759497328	0,0070232765925404659	0,18823434759497328
1	0	0	1	0	0	1	107040,78	-0,300000012	2,69285393	-0,00083291941467755379	-0,29984506387099117	0,000807438977	-0,18906726700965085	0,0070543539357741504	0,18906726700965085
1	0	0	1	0	0	1	107050,78	-0,300000012	2,67309022	-0,0008329179994596375	-0,29984455430487302	0,000801511575	-0,1899001850091105	0,0070854312262041498	0,1899001850091105
1	0	0	1	0	0	1	107060,78	-0,300000012	2,65330744	-0,00083291520314415296	-0,29984354663194566	0,000795577129	-0,19073310021225466	0,0071165084122998592	0,19073310021225466
1	0	0	1	0	0	1	107070,78	-0,300000012	2,63257074	-0,00083290956869555853	-0,29984151827054285	0,000789354031	-0,19156600978095021	0,0071475853881667149	0,19156600978095021
1	0	0	1	0	0	1	107080,78	-0,300000012	2,61149073	-0,00083290986203485056	-0,29984162434575149	0,000783033611	-0,19239891964298506	0,0071786623749784563	0,19239891964298506
1	0	0	1	0	0	1	107090,78	-0,300000012	2,59067774	-0,00083292120263808294	-0,29984570752449843	0,000776803587	-0,19323184084562314	0,0072097397849233498	0,19323184084562314
1	0	0	1	0	0	1	107100,78	-0,300000012	2,56902552	-0,00083292917372120755	-0,29984857705728038	0,000770318671	-0,19406477001934435	0,007240817492280073	0,19406477001934435
1	0	0	1	0	0	1	107110,78	-0,300000012	2,54773569	-0,0008329183234754537	-0,29984467013931923	0,000763924967	-0,19489768834281981	0,0072718947947995392	0,19489768834281981
1	0	0	1	0	0	1	107120,78	-0,300000012	2,52537751	-0,00083291520729329843	-0,29984354812560851	0,000757218164	-0,19573060355011312	0,0073029719810500595	0,19573060355011312
1	0	0	1	0	0	1	107130,78	-0,300000012	2,5034008	-0,00083291692657437594	-0,29984416720814842	0,000750630104	-0,19656352047668752	0,0073340492314492672	0,19656352047668752
1	0	0	1	0	0	1	107140,78	-0,300000012	2,48050833	-0,00083291449469327923	-0,29984329271339853	0,000743763812	-0,1973964349713808	0,0073651263911117222	0,1973964349713808
1	0	0	1	0	0	1	107150,78	-0,300000012	2,4578259	-0,0008329250478297472	-0,29984709176570637	0,000736971968	-0,19822936001921053	0,007396203944525888	0,19822936001921053
1	0	0	1	0	0	1	107160,78	-0,300000012	2,43499088	-0,00083292213886810675	-0,29984604397378976	0,000730122381	-0,19906228215807866	0,0074272813894027827	0,19906228215807866
1	0	0	1	0	0	1	107170,78	-0,300000012	2,4126327	-0,00083292405766248704	-0,29984673419554278	0,00072342006	-0,19989520621574115	0,0074583589058724762	0,19989520621574115
1	0	0	1	0	0	1	107180,78	-0,300000012	2,39077044	-0,00083291918115814528	-0,29984497868867789	0,000716860523	-0,20072812539689926	0,0074894362403932352	0,20072812539689926
1	0	0	1	0	0	1	107190,78	-0,300000012	2,36759186	-0,0008329191158993376	-0,29984495614541082	0,00070991047	-0,20156104451279859	0,0075205135724791014	0,20156104451279859
1	0	0	1	0	0	1	107200,78	-0,300000012	2,34418464	-0,00083292882670793267	-0,29984845213846074	0,000702900114	-0,20239397333950653	0,0075515912668882931	0,20239397333950653
1	0	0	1	0	0	1	107210,78	-0,300000012	2,32142568	-0,00083293652413288755	-0,29985122289139475	0,000696082308	-0,20322690986363942	0,0075826692484987571	0,20322690986363942
1	0	0	1	0	0	1	107220,78	-0,300000012	2,29860973	-0,00083293535796801242	-0,2998508022286167	0,000689239998	-0,20405984522160746	0,0076137471865980442	0,20405984522160746
1	0	0	1	0	0	1	107230,78	-0,300000012	2,27524042	-0,00083293233979907302	-0,29984971570927386	0,000682230166	-0,20489277756140653	0,0076448250120853888	0,20489277756140653
1	0	0	1	0	0	1	107240,78	-0,300000012	2,25246263	-0,00083293076223466125	-0,29984914842562483	0,000675398973	-0,20572570832364122	0,0076759027787116851	0,20572570832364122
1	0	0	1	0	0	1	107250,78	-0,300000012	2,22903609	-0,00083292498626642765	-0,29984706961382112	0,000668369932	-0,20655863330990762	0,0077069803298288397	0,20655863330990762
1	0	0	1	0	0	1	107260,78	-0,300000012	2,20599103	-0,00083292707284953856	-0,29984782076191584	0,000661461614	-0,20739156038275715	0,0077380579587992154	0,20739156038275715
1	0	0	1	0	0	1	107270,78	-0,300000012	2,18275523	-0,00083293279039363072	-0,29984987797595878	0,000654498872	-0,20822449317315078	0,0077691358010988493	0,20822449317315078
1	0	0	1	0	0	1	107280,79	-0,300000012	2,1595006	-0,00083292850998375142	-0,29984833700300864	0,000647522684	-0,20905742168313453	0,0078002134836906355	0,20905742168313453
1	0	0	1	0	0	1	107290,79	-0,300000012	2,13636017	-0,00083292368237177536	-0,29984659941120198	0,000640580314	-0,20989034536550634	0,007831290986157728	0,20989034536550634
1	0	0	1	0	0	1	107300,79	-0,300000012	2,11287642	-0,00083292533580627699	-0,29984719543869907	0,000633540039	-0,21072327070131261	0,0078623685503166861	0,21072327070131261
1	0	0	1	0	0	1	107310,79	-0,300000012	2,0895834	-0,0008329239032417536	-0,29984667972566195	0,000626554654	-0,21155619460455437	0,0078934460610247334	0,21155619460455437
1	0	0	1	0	0	1	107320,79	-0,300000012	2,06650043	-0,00083291842984656486	-0,29984470860232832	0,000619629223	-0,21238911303440093	0,007924523367513047	0,21238911303440093
1	0	0	1	0	0	1	107330,79	-0,300000012	2,04347444	-0,00083291655311816282	-0,29984403261647418	0,000612723641	-0,21322202958751907	0,0079556006039781018	0,21322202958751907
1	0	0	1	0	0	1	107340,79	-0,300000012	2,0212307	-0,00083291698583132685	-0,2998441883901344	0,000606054266	-0,2140549465733504	0,0079866778565882662	0,2140549465733504
1	0	0	1	0	0	1	107350,74	-0,300000012	2,00001717	-0,00082939407191839475	-0,2998412704248903	0,000599687686	-0,2148843406452688	0,0080176236645437325	0,2148843406452688
1	1	0	0	1	0	2	107350,74	0,300000012	2,03091216	1,613198717435201E-008	0,096791937228849267	0,000196575929	-0,21488432451328163	0,0080176230626376013	1,613198717435201E-008
1	1	0	0	0	0	2	107360,75	0,300000012	2,60094595	0,00083387000031272563	0,30018726794764294	0,000780770846	-0,2140504545129689	0,0079865102517757939	0,00083388613229990003
1	1	0	0	0	0	2	107370,75	0,300000012	2,98158836	0,00083387290478414963	0,30018831309637568	0,000895037956	-0,21321658160818474	0,0079553973325442522	0,0016677590370840499
1	1	0	0	0	0	2	107380,75	0,300000012	3,2839582	0,00083387077358696192	0,30018754519561408	0,000985803315	-0,21238271083459779	0,0079242844928305434	0,0025016298106710115
1	1	0	0	0	0	2	107390,75	0,300000012	3,54140162	0,00083387242031594112	0,30018813800632954	0,00106308679	-0,21154883841428186	0,0078931715916751629	0,003335502230986953
1	1	0	0	0	0	2	107400,75	0,300000012	3,75141978	0,00083386553177071936	0,30018565897582208	0,00112612243	-0,21071497288251114	0,0078620589475406656	0,0041693677627576723
1	1	0	0	0	0	2	107410,75	0,300000012	3,8940773	0,00083386185985638042	0,30018433742729184	0,00116894103	-0,20988111102265475	0,0078309464404102298	0,0050032296226140531
1	1	0	0	0	0	2	107420,75	0,300000012	3,93162084	0,0008338703917198711	0,30018740873261536	0,00118022307	-0,20904724063093488	0,0077998336149444966	0,0058371000143339238
1	1	0	0	0	0	2	107430,75	0,300000012	3,94321942	0,00083386381719675328	0,30018504094463629	0,00118369551	-0,20821337681373814	0,0077687210347830592	0,0066709638315306778
1	1	0	0	0	0	2	107440,75	0,300000012	3,94999194	0,00083385861163338022	0,30018316697886144	0,00118572114	-0,20737951820210477	0,0077376086488481907	0,0075048224431640576
1	1	0	0	0	0	2	107450,75	0,300000012	3,9548564	0,00083385661117401382	0,30018244730297747	0,00118717842	-0,20654566159093075	0,0077064963375531507	0,0083386790543380723
1	1	0	0	0	0	2	107460,75	0,300000012	3,95911074	0,00083387028569976486	0,30018737068494675	0,00118847506	-0,20571179130523098	0,0076753835160431706	0,0091725493400378368
1	1	0	0	0	0	2	107470,75	0,300000012	3,96265888	0,00083387380456924442	0,30018863744593696	0,00118954515	-0,20487791750066173	0,0076442705632394368	0,010006423144607082
1	1	0	0	0	0	2	107480,75	0,300000012	3,96632171	0,00083386211704876685	0,30018442911313056	0,00119062804	-0,20404405538361296	0,0076131580465128064	0,010840285261655848
1	1	0	0	0	0	2	107490,75	0,300000012	3,96941209	0,00083385496313869965	0,30018185354673677	0,00119154551	-0,20321020042047424	0,0075820457967081792	0,011674140224794547
1	1	0	0	0	0	2	107500,75	0,300000012	3,97214007	0,00083385161589086054	0,30018064871508934	0,0011923596	-0,20237634880458339	0,0075509336717938701	0,012507991840685406
1	1	0	0	0	0	2	107510,75	0,300000012	3,97570753	0,00083384790253970368	0,30017931289607546	0,00119342515	-0,20154250090204368	0,0075198216854296845	0,01334183974322511
1	1	0	0	0	0	2	107520,75	0,300000012	3,97856903	0,00083386465102930867	0,30018534223318406	0,00119430816	-0,20070863625101437	0,0074887090741568346	0,014175704394254421
1	1	0	0	0	0	2	107530,75	0,300000012	3,98129702	0,00083386250108811584	0,30018456768256678	0,00119512388	-0,19987477374992627	0,0074575965431011802	0,015009566895342534
1	1	0	0	0	0	2	107540,75	0,300000012	3,98347187	0,00083386027436455091	0,30018376554675744	0,0011957736	-0,19904091347556173	0,0074264840951275763	0,015843427169707088
1	1	0	0	0	0	2	107550,75	0,300000012	3,98593283	0,00083386727606256794	0,30018628610822387	0,00119652238	-0,19820704619949914	0,0073953713859112051	0,016677294445769658
1	1	0	0	0	0	2	107560,75	0,300000012	3,98873711	0,0008338738648212617	0,30018865896499987	0,00119737361	-0,19737317233467789	0,0073642584308593894	0,017511168310590918
1	1	0	0	0	0	2	107570,75	0,300000012	3,9913888	0,00083386206830375731	0,30018441247035917	0,00119815266	-0,19653931026637411	0,0073331459159515008	0,018345030378894675
1	1	0	0	0	0	2	107580,75	0,300000012	3,99337292	0,00083384720142351258	0,3001790602336544	0,00119872694	-0,19570546306495059	0,007302033955746903	0,019178877580318186
1	1	0	0	0	0	2	107590,75	0,300000012	3,9952805	0,00083384281343221658	0,30017747973535808	0,00119929318	-0,1948716202515184	0,0072709221592641613	0,0200127203937504
1	1	0	0	0	0	2	107600,75	0,300000012	3,99575734	0,00083385611905819827	0,30018226966647379	0,00119945547	-0,19403776413246019	0,007239809866330624	0,020846576512808598
1	1	0	0	0	0	2	107610,75	0,300000012	3,99709272	0,00083384561922815117	0,30017849044534925	0,00119984127	-0,19320391851323203	0,007208697965159863	0,021680422132036752
1	1	0	0	0	0	2	107620,75	0,300000012	3,99825644	0,00083385215553310182	0,30018084394344288	0,00120019994	-0,19237006635769894	0,007177585820110775	0,022514274287569853
1	1	0	0	0	0	2	107630,75	0,300000012	4,00012636	0,0008338518663462665	0,30018073983823942	0,00120076095	-0,19153621449135267	0,007146473685851639	0,023348126153916118
1	1	0	0	0	0	2	107640,75	0,300000012	4,00149965	0,00083385568131340877	0,30018211213781331	0,00120117865	-0,19070235881003923	0,0071153614092509478	0,02418198183522953
1	1	0	0	0	0	2	107650,75	0,300000012	4,00289249	0,00083385535228086848	0,30018199363165414	0,00120159623	-0,18986850345775837	0,0070842491449269043	0,0250158371875104
1	1	0	0	0	0	2	107660,75	0,300000012	4,00457096	0,0008338558963454432	0,30018218981776666	0,00120210089	-0,18903464756141296	0,0070531368603030797	0,025849693083855843
1	1	0	0	0	0	2	107670,75	0,300000012	4,00628805	0,00083386217998961613	0,30018445267647373	0,00120262534	-0,18820078538142333	0,007022024341228041	0,026683555263845456
1	1	0	0	0	0	2	107680,75	0,300000012	4,00720358	0,0008338628470831447	0,3001846928253984	0,00120290113	-0,18736692253434016	0,006990911797262848	0,027517418110928602
1	1	0	0	0	0	2	107690,75	0,300000012	4,00863457	0,00083386279397706189	0,30018467295276563	0,0012033307	-0,1865330597403631	0,0069597992552791117	0,028351280904905664
1	1	0	0	0	0	2	107700,75	0,300000012	4,01037073	0,00083386320301062541	0,30018481983850579	0,00120385247	-0,18569919653735248	0,0069286866980337856	0,029185144107916288
1	1	0	0	0	0	2	107710,75	0,300000012	4,01187754	0,00083385524096257152	0,3001819535753319	0,00120429322	-0,18486534129638989	0,006897574437863177	0,030018999348878861
1	1	0	0	0	0	2	107720,75	0,300000012	4,01340389	0,00083385357922150042	0,3001813564646327	0,00120474899	-0,18403148771716842	0,0068664622396943616	0,030852852928100358
1	1	0	0	0	0	2	107730,75	0,300000012	4,01523495	0,0008338567551010185	0,30018249975866598	0,00120530324	-0,18319763096206736	0,0068353499230292109	0,031686709683201376
1	1	0	0	0	0	2	107740,75	0,300000012	4,01639891	0,0008338586183455255	0,30018317008011251	0,0012056554	-0,18236377234372182	0,0068042375368439027	0,032520568301546906
1	1	0	0	0	0	2	107750,75	0,300000012	4,01784849	0,00083385224944187533	0,30018087663518899	0,00120608124	-0,18152992009427997	0,006773125388290953	0,033354420550988781
1	1	0	0	0	0	2	107760,75	0,300000012	4,01920319	0,00083384882201254374	0,30017964278501702	0,00120648299	-0,18069607127226742	0,00674201336762	0,034188269373001325
1	1	0	0	0	0	2	107770,75	0,300000012	4,02048111	0,00083385487773683341	0,30018182361339827	0,00120687531	-0,17986221639453059	0,006710901121001833	0,035022124250738163
1	1	0	0	0	0	2	107780,75	0,300000012	4,02181673	0,00083385568433006618	0,30018211428874061	0,00120727741	-0,17902836071020054	0,0066797888442885862	0,03585597993506823
1	1	0	0	0	0	2	107790,75	0,300000012	4,0234766	0,00083385154541995789	0,30018062419872218	0,00120776973	-0,17819450916478058	0,0066486767220036416	0,036689831480488186
1	1	0	0	0	0	2	107800,75	0,300000012	4,02465916	0,0008338481407960256	0,30017939755191757	0,00120811979	-0,17736066102398458	0,0066175647267497933	0,037523679621284211
1	1	0	0	0	0	2	107810,75	0,300000012	4,02612829	0,00083385502249499149	0,30018187491457952	0,00120857079	-0,17652680600148957	0,0065864524747305037	0,0383575346437792
1	1	0	0	0	0	2	107820,75	0,300000012	4,027349	0,00083385099201732211	0,30018042446052563	0,00120893132	-0,17569295500947226	0,0065553403730937549	0,039191385635796525
1	1	0	0	0	0	2	107830,75	0,300000012	4,02835989	0,00083385716021723213	0,30018264559762086	0,00120924378	-0,17485909784925501	0,0065242280413131738	0,04002524279601376
1	1	0	0	0	0	2	107840,75	0,300000012	4,02960014	0,0008338554645842976	0,30018203518182726	0,00120961352	-0,17402524238467072	0,0064931157727989376	0,040859098260598054
1	1	0	0	0	0	2	107850,75	0,300000012	4,03066826	0,00083385933006306496	0,30018342581810758	0,00120993983	-0,17319138305460765	0,0064620033600584922	0,04169295759066112
1	1	0	0	0	0	2	107860,75	0,300000012	4,03194666	0,00083384732334481344	0,30017910327529766	0,00121030619	-0,17235753573126285	0,0064308913953048474	0,042526804914005933
1	1	0	0	0	0	2	107870,76	0,300000012	4,03301477	0,00083384563228819098	0,3001784946886585	0,00121062435	-0,17152369009897466	0,0063997794936467981	0,043360650546294131
1	1	0	0	0	0	2	107880,76	0,300000012	4,03417873	0,00083384809752636493	0,30017938309338086	0,00121097732	-0,17068984200144826	0,0063686675000073984	0,044194498643820493
1	1	0	0	0	0	2	107890,76	0,300000012	4,03518963	0,00083386087833179366	0,30018398409241229	0,00121129933	-0,16985598112311648	0,0063375550294989645	0,045028359522152288
1	1	0	0	0	0	2	107900,76	0,300000012	4,03633404	0,00083387016095221043	0,3001873251826375	0,00121165637	-0,16902211096216426	0,0063064422126434829	0,045862229683104499
1	1	0	0	0	0	2	107910,76	0,300000012	4,03765059	0,00083386260603202714	0,30018460493045818	0,00121204054	-0,16818824835613226	0,0062753296776722291	0,046696092289136531
1	1	0	0	0	0	2	107920,76	0,300000012	4,03904295	0,00083385415471759117	0,30018156251739546	0,00121244625	-0,16735439420141466	0,0062442174580308826	0,047529946443854118
1	1	0	0	0	0	2	107930,76	0,300000012	4,03974915	0,00083386107704374528	0,30018405548402534	0,00121266826	-0,16652053312437091	0,0062131049801082368	0,048363807520897862
1	1	0	0	0	0	2	107940,76	0,300000012	4,04106522	0,00083386766324771763	0,30018642661038234	0,00121307292	-0,16568666546112317	0,0061819922564454682	0,049197675184145574
1	1	0	0	0	0	2	107950,76	0,300000012	4,04200029	0,00083386380358205914	0,30018503689261754	0,001213348	-0,16485280165754112	0,0061508796767920141	0,050031538987727635
1	1	0	0	0	0	2	107960,76	0,300000012	4,04331636	0,00083386238120330714	0,30018452399371872	0,00121374102	-0,16401893927633782	0,0061197671502094234	0,050865401368930944
1	1	0	0	0	0	2	107970,76	0,300000012	4,04434681	0,00083386181632843277	0,3001843206427833	0,00121404952	-0,16318507746000938	0,0060886546447030733	0,051699263185259379
1	1	0	0	0	0	2	107980,76	0,300000012	4,04530048	0,00083387375484903654	0,30018861908223584	0,00121435313	-0,16235120370516035	0,0060575416937544678	0,052533136940108416
1	1	0	0	0	0	2	107990,76	0,300000012	4,04657841	0,00083386693852146458	0,30018616571408691	0,00121472683	-0,16151733676663888	0,0060264289971322086	0,053367003878629882
1	1	0	0	0	0	2	108000,76	0,300000012	4,04749441	0,00083385556157926707	0,30018207009626854	0,00121498527	-0,16068348120505958	0,0059953167249989594	0,054200859440209152
1	1	0	0	0	0	2	108010,76	0,300000012	4,04863882	0,00083385569660531149	0,30018211762837459	0,00121532893	-0,15984962550845427	0,0059642044478277069	0,055034715136814458
1	1	0	0	0	0	2	108020,76	0,300000012	4,0495162	0,00083386485326786829	0,30018541391937107	0,00121560565	-0,1590157606551864	0,0059330918290090637	0,05586857999008233
1	1	0	0	0	0	2	108030,76	0,300000012	4,05052757	0,00083386568075252902	0,30018571214431181	0,00121591054	-0,15818189497443389	0,0059019791793158554	0,056702445670834854
1	1	0	0	0	0	2	108040,76	0,300000012	4,05163383	0,00083386118790341747	0,30018409553249997	0,00121623604	-0,15734803378653046	0,0058708666972568883	0,057536306858738278
1	1	0	0	0	0	2	108050,76	0,300000012	4,05291224	0,00083385377443995738	0,30018142673839398	0,00121660903	-0,15651418001209053	0,0058397544918042099	0,05837016063317824
1	1	0	0	0	0	2	108060,76	0,300000012	4,05396128	0,00083385437832276032	0,3001816433648631	0,00121692475	-0,15568032563376778	0,0058086422638198528	0,059204015011500992
1	1	0	0	0	0	2	108070,76	0,300000012	4,05495358	0,00083386539554761523	0,30018560913622144	0,00121723872	-0,15484646023822016	0,0057775296247680243	0,060037880407048614
1	1	0	0	0	0	2	108080,76	0,300000012	4,0561552	0,0008338685843166377	0,30018675708435853	0,00121760403	-0,15401259165390352	0,0057464168667389338	0,060871748991365248
1	1	0	0	0	0	2	108090,76	0,300000012	4,05762434	0,000833867305793696	0,30018629792947744	0,00121804327	-0,15317872434810982	0,005715304156413255	0,06170561629715895
1	1	0	0	0	0	2	108100,76	0,300000012	4,0588069	0,00083386816702617536	0,3001866079670432	0,0012183995	-0,15234485618108365	0,0056841914139538336	0,062539484464185126
1	1	0	0	0	0	2	108110,76	0,300000012	4,05997038	0,00083386889215641549	0,30018686856146656	0,00121874979	-0,15151098728892723	0,0056530786444388282	0,063373353356341542
1	1	0	0	0	0	2	108120,76	0,300000012	4,06119156	0,00083386148717006054	0,30018420215160582	0,00121910556	-0,15067712580175715	0,0056219661512138189	0,064207214843511603
1	1	0	0	0	0	2	108130,76	0,300000012	4,06308031	0,00083386753270030016	0,30018637849947597	0,00121968135	-0,14984325826905686	0,0055908534324219494	0,065041082376211904
1	1	0	0	0	0	2	108140,76	0,300000012	4,06426287	0,00083387024346656269	0,30018735516678304	0,00122004037	-0,1490093880255903	0,0055597406124877459	0,065874952619678477
1	1	0	0	0	0	2	108150,76	0,300000012	4,06462526	0,00083387410420344934	0,30018874531211917	0,00122015481	-0,14817551392138688	0,0055286276485042586	0,06670882672388192
1	1	0	0	0	0	2	108160,76	0,300000012	4,0658083	0,00083386904046270579	0,30018692227567059	0,00122050242	-0,14734164488092416	0,0054975148734557466	0,067542695764344627
1	1	0	0	0	0	2	108170,76	0,300000012	4,06704807	0,00083386204957134208	0,30018440461206547	0,00122086436	-0,14650778283135283	0,0054664023592467898	0,068376557813915968
1	1	0	0	0	0	2	108180,76	0,300000012	4,067945	0,00083385845171080691	0,30018310940787296	0,00122112839	-0,14567392437964202	0,0054352899792788486	0,069210416265626765
1	1	0	0	0	0	2	108190,76	0,300000012	4,06880331	0,00083385461330082688	0,3001817281108007	0,00122138043	-0,14484006976634122	0,0054041777425271424	0,07004427087892759
1	1	0	0	0	0	2	108200,76	0,300000012	4,07034826	0,0008338666199131145	0,30018605102084198	0,00122186181	-0,1440062031464281	0,0053730650577925907	0,070878137498840704
1	1	0	0	0	0	2	108210,76	0,300000012	4,07147408	0,00083386426578958822	0,30018520355311987	0,00122219627	-0,14317233888063851	0,005341952460893552	0,071712001764630285
1	1	0	0	0	0	2	108220,76	0,300000012	4,07290459	0,00083386263815065216	0,30018461669212346	0,00122262328	-0,14233847624248786	0,0053108399247239098	0,072545864402780941
1	1	0	0	0	0	2	108230,76	0,300000012	4,07399225	0,00083387173951168858	0,30018789292164275	0,0012229631	-0,14150460450297616	0,0052797270489702509	0,073379736142292621
1	1	0	0	0	0	2	108240,76	0,300000012	4,07471704	0,00083387519364886822	0,30018913656816883	0,0012231858	-0,14067072930932731	0,0052486140443380902	0,074213611335941491
1	1	0	0	0	0	2	108250,76	0,300000012	4,07586193	0,00083387217405769562	0,30018805047337888	0,00122352503	-0,13983685713526962	0,0052175011523709357	0,075047483509999194
1	1	0	0	0	0	2	108260,76	0,300000012	4,07679653	0,0008338665035002761	0,30018600911304838	0,00122379733	-0,13900299063176933	0,0051863884719799021	0,075881350013499469
1	1	0	0	0	0	2	108270,76	0,300000012	4,07786465	0,00083387247169845632	0,30018815700688902	0,00122412667	-0,13816911816007088	0,0051552755689073709	0,076715222485197926
1	1	0	0	0	0	2	108280,76	0,300000012	4,07603359	0,00083387031609813363	0,3001873805028912	0,00122357381	-0,13733524784397275	0,0051241627462631859	0,077549092801296051
1	1	0	0	0	0	2	108290,76	0,300000012	4,07647228	0,00083386887592242816	0,30018686204988454	0,00122370338	-0,13650137896805032	0,0050930499773538918	0,078382961677218496
1	1	0	0	0	0	2	108300,76	0,300000012	4,07797909	0,00083386462289922765	0,30018533196677312	0,00122414948	-0,13566751434515109	0,0050619373671306125	0,079216826300117709
1	1	0	0	0	0	2	108310,76	0,300000012	4,07920027	0,00083386313880152166	0,30018479784193882	0,00122451386	-0,13483365120634957	0,0050308248122810138	0,080050689438919232
1	1	0	0	0	0	2	108320,76	0,300000012	4,08019209	0,00083386291919979776	0,30018471849333901	0,00122481131	-0,13399978828714979	0,0049997122656250515	0,080884552358119027
1	1	0	0	0	0	2	108330,76	0,300000012	4,08095503	0,00083386460560725811	0,30018532476331354	0,00122504286	-0,13316592368154254	0,0049685996560469587	0,081718416963726298
1	1	0	0	0	0	2	108340,76	0,300000012	4,08204269	0,00083386322942210573	0,30018482934645082	0,0012253673	-0,13233206045212043	0,0049374870978161837	0,082552280193148403
1	1	0	0	0	0	2	108350,76	0,300000012	4,08314896	0,00083385944309168397	0,30018346695141107	0,00122569385	-0,13149820100902874	0,0049063746808584877	0,08338613963624009
1	1	0	0	0	0	2	108360,76	0,300000012	4,08437014	0,00083386543351742963	0,30018562392334093	0,00122606917	-0,1306643355755113	0,0048752620403899526	0,084220005069757517
1	1	0	0	0	0	2	108370,77	0,300000012	4,08545732	0,00083386060969365978	0,30018388738110061	0,0012263885	-0,12983047496581765	0,0048441495799047693	0,085053865679451187
1	1	0	0	0	0	2	108380,77	0,300000012	4,08644962	0,00083385836163494323	0,30018307700566458	0,00122668303	-0,12899661660418272	0,0048130372032976781	0,085887724041086118
1	1	0	0	0	0	2	108390,77	0,300000012	4,08761311	0,00083386622446609869	0,30018590754141427	0,0012270438	-0,12816275037971661	0,0047819245333177856	0,086721590265552218
1	1	0	0	0	0	2	108400,77	0,300000012	4,088624	0,00083387525626189184	0,30018915926261069	0,00122736057	-0,12732887512345472	0,0047508115263494483	0,087555465521814118
1	1	0	0	0	0	2	108410,77	0,300000012	4,08938742	0,00083387247290379469	0,30018815805279078	0,00122758572	-0,12649500265055094	0,004719698623231945	0,088389337994717914
1	1	0	0	0	0	2	108420,77	0,300000012	4,0899024	0,00083387653463582195	0,30018962024742534	0,00122774625	-0,12566112611591512	0,0046885855685657574	0,089223214529353741
1	1	0	0	0	0	2	108430,77	0,300000012	4,09102774	0,00083386884895132646	0,30018685268644186	0,0012280728	-0,12482725726696379	0,0046574728006627917	0,090057083378305062
1	1	0	0	0	0	2	108440,77	0,300000012	4,09089422	0,00083386108413338662	0,30018405705777645	0,00122802122	-0,12399339618283042	0,0046263603224756237	0,090890944462438451
1	1	0	0	0	0	2	108450,77	0,300000012	4,0918293	0,00083386487868593805	0,30018542311337722	0,00122830749	-0,12315953130414448	0,0045952477027085984	0,091724809341124378
1	1	0	0	0	0	2	108460,77	0,300000012	4,09284019	0,00083386233797338278	0,30018450954950586	0,00122860726	-0,1223256689661711	0,0045641351777389741	0,092558671679097754
1	1	0	0	0	0	2	108470,77	0,300000012	4,0936985	0,00083386464113659328	0,30018533867187693	0,00122886826	-0,1214918043250345	0,0045330225668352346	0,093392536320234355
1	1	0	0	0	0	2	108480,77	0,300000012	4,09421396	0,00083386285448571046	0,30018469504296819	0,00122902042	-0,12065794147054878	0,0045019100225938406	0,094226399174720064
1	1	0	0	0	0	2	108490,77	0,300000012	4,09516764	0,00083386568268802432	0,30018571250472563	0,00122931076	-0,11982407578786078	0,004470797372828416	0,095060264857408077
1	1	0	0	0	0	2	108500,77	0,300000012	4,09625483	0,00083387195014456909	0,30018796874798106	0,00122964638	-0,11899020383771619	0,0044396844892157606	0,095894136807552653
1	1	0	0	0	0	2	108510,77	0,300000012	4,09724712	0,00083386626082989914	0,30018592147387456	0,00122993591	-0,1181563375768863	0,0044085718178790854	0,096728003068382554
1	1	0	0	0	0	2	108520,77	0,300000012	4,09514856	0,00083387264638808038	0,30018822050895725	0,00122931541	-0,11732246493049822	0,0043774589082886496	0,097561875714770637
1	1	0	0	0	0	2	108530,77	0,300000012	4,09581614	0,00083387369283702643	0,30018859709732826	0,00122951728	-0,11648859123766122	0,0043463459596537965	0,098395749407607654
1	1	0	0	0	0	2	108540,77	0,300000012	4,09694195	0,00083386953682535232	0,30018709997023462	0,00122984918	-0,11565472170083584	0,0043152331660853261	0,099229618944433011
1	1	0	0	0	0	2	108550,77	0,300000012	4,09772396	0,00083386935469839309	0,30018703440582522	0,00123008364	-0,11482085234613746	0,0042841203793122573	0,10006348829913141
1	1	0	0	0	0	2	108560,77	0,300000012	4,09869671	0,00083387349529564378	0,30018852550857222	0,00123038178	-0,11398697885084181	0,0042530074380479386	0,10089736179442706
1	1	0	0	0	0	2	108570,77	0,300000012	4,09963179	0,00083386887411276506	0,30018686251667974	0,00123065559	-0,11315310997672904	0,0042218946692061658	0,10173123066853982
1	1	0	0	0	0	2	108580,77	0,300000012	4,10062361	0,00083386504461202355	0,300185483923656	0,00123094767	-0,11231924493211701	0,0041907820432482144	0,10256509571315184
1	1	0	0	0	0	2	108590,77	0,300000012	4,10237885	0,00083387093627783987	0,30018760394489043	0,0012314833	-0,11148537399583917	0,0041596691974642912	0,10339896664942968
1	1	0	0	0	0	2	108600,77	0,300000012	4,10432434	0,00083387216404742669	0,30018804575148774	0,0012320691	-0,11065150183179174	0,004128556305870633	0,1042328388134771
1	1	0	0	0	0	2	108610,77	0,300000012	4,10785389	0,00083386967704859046	0,3001871506452985	0,00123312499	-0,10981763215474315	0,0040974435070702451	0,1050667084905257
1	1	0	0	0	0	2	108620,77	0,300000012	4,10831165	0,00083386300167772506	0,30018474848184198	0,00123325246	-0,10898376915306544	0,0040663309573369197	0,10590057149220342
1	1	0	0	0	0	2	108630,77	0,300000012	4,10930347	0,000833867811176512	0,30018647986719046	0,00123355736	-0,10814990134188891	0,0040352182281547277	0,10673443930337994
1	1	0	0	0	0	2	108640,77	0,300000012	4,10903645	0,00083386650344067149	0,30018600847654925	0,00123347528	-0,10731603483844824	0,0040041055477659187	0,10756830580682061
1	1	0	0	0	0	2	108650,77	0,300000012	4,11000967	0,00083386977504193779	0,3001871857265104	0,00123377226	-0,1064821650634063	0,0039729927453092672	0,10840217558186256
1	1	0	0	0	0	2	108660,77	0,300000012	4,11113501	0,00083386674284934989	0,30018609415875398	0,00123410556	-0,10564829832055696	0,0039418800559877978	0,1092360423247119
1	1	0	0	0	0	2	108670,77	0,300000012	4,1112113	0,00083386539978616768	0,30018561165801734	0,00123412651	-0,10481443292077078	0,0039107674167778221	0,11006990772449808
1	1	0	0	0	0	2	108680,77	0,300000012	4,11256599	0,00083386538118455155	0,30018560508737171	0,00123453315	-0,10398056753958626	0,0038796547782618982	0,11090377310568261
1	1	0	0	0	0	2	108690,77	0,300000012	4,11334801	0,00083387940097848576	0,30019065181990355	0,00123478856	-0,10314668813860778	0,0038485416166486125	0,11173765250666109
1	1	0	0	0	0	2	108700,77	0,300000012	4,11393929	0,0008338720838013623	0,30018801685998099	0,00123495527	-0,1023128160548064	0,0038174287280490426	0,11257152459046246
1	1	0	0	0	0	2	108710,77	0,300000012	4,11456871	0,00083386808214750554	0,30018657629306586	0,00123513828	-0,10147894797265888	0,0037863159887565587	0,11340539267260995
1	1	0	0	0	0	2	108720,77	0,300000012	4,11573267	0,00083386857851015194	0,30018675565104314	0,00123548845	-0,10064507939414872	0,0037552032309441165	0,11423926125112011
1	1	0	0	0	0	2	108730,77	0,300000012	4,11630487	0,00083386192415157952	0,30018436057660064	0,00123565039	-0,099811217469997146	0,0037240907214147405	0,11507312317527171
1	1	0	0	0	0	2	108740,77	0,300000012	4,11708689	0,00083386634511252237	0,30018595209108922	0,0012358916	-0,098977351124884621	0,003692978046933367	0,11590698952038422
1	1	0	0	0	0	2	108750,77	0,300000012	4,11786938	0,00083387065243058726	0,30018750160464333	0,00123613293	-0,098143480472454042	0,0036618652117401658	0,1167408601728148
1	1	0	0	0	0	2	108760,77	0,300000012	4,11868954	0,00083387207739386291	0,30018801455332685	0,00123638124	-0,097309608395060173	0,0036307523233796685	0,11757473225020867
1	1	0	0	0	0	2	108770,77	0,300000012	4,11996746	0,00083387150992287526	0,30018781063124506	0,00123676402	-0,096475736885137293	0,0035996394561922765	0,11840860376013155
1	1	0	0	0	0	2	108780,77	0,300000012	4,12054014	0,00083387516163123981	0,30018912597510656	0,00123694132	-0,095641861723506061	0,003568526452754736	0,11924247892176278
1	1	0	0	0	0	2	108790,77	0,300000012	4,12118864	0,00083387602239184896	0,30018943584323923	0,00123713724	-0,094807985701114202	0,0035374134172010605	0,12007635494415466
1	1	0	0	0	0	2	108800,77	0,300000012	4,1223712	0,00083387681896819008	0,3001897218222649	0,00123749347	-0,09397410888214601	0,0035063003519260499	0,12091023176312285
1	1	0	0	0	0	2	108810,77	0,300000012	4,12330627	0,00083388057638870349	0,30019107413099597	0,00123777974	-0,093140228305757299	0,0034751871464566278	0,12174411233951155
1	1	0	0	0	0	2	108820,77	0,300000012	4,12466049	0,00083387243472701978	0,30018814323352934	0,00123817415	-0,092306355871030285	0,0034440742447635501	0,12257798477423856
1	1	0	0	0	0	2	108830,77	0,300000012	4,1252327	0,00083386957180168883	0,30018711367623443	0,00123834168	-0,091472486299228595	0,0034129614498900659	0,12341185434604024
1	1	0	0	0	0	2	108840,77	0,300000012	4,12591982	0,00083387413791981018	0,30018875744627462	0,00123855472	-0,090638612161308774	0,0033818484846485754	0,12424572848396006
1	1	0	0	0	0	2	108850,77	0,300000012	4,12685442	0,00083387310810552704	0,30018838624694272	0,00123883376	-0,089804739053203251	0,0033507355578308403	0,1250796015920656
1	1	0	0	0	0	2	108860,77	0,300000012	4,1274457	0,00083387678686115482	0,3001897099280423	0,00123901677	-0,088970862266342093	0,0033196224937537862	0,12591347837892675
1	1	0	0	0	0	2	108870,77	0,300000012	4,12820864	0,00083387160321904563	0,30018784385376653	0,00123923807	-0,088136990663123059	0,0032885096230853894	0,12674734998214579
1	1	0	0	0	0	2	108880,78	0,300000012	4,1293726	0,00083386914020776755	0,30018695802592774	0,00123958383	-0,08730312152291529	0,003257396844315255	0,12758121912235357
1	1	0	0	0	0	2	108890,78	0,300000012	4,13013554	0,00083387006587783488	0,30018729154013216	0,00123981421	-0,086469251457037466	0,0032262840310071258	0,12841508918823141
1	1	0	0	0	0	2	108900,78	0,300000012	4,13112783	0,00083386783784793485	0,30018648931145766	0,00124010874	-0,08563538361918953	0,0031951713008297869	0,12924895702607936
1	1	0	0	0	0	2	108910,78	0,300000012	4,13210058	0,00083387045735948608	0,30018743135597286	0,00124040467	-0,084801513161830042	0,003164058472914951	0,13008282748343886
1	1	0	0	0	0	2	108920,78	0,300000012	4,13337851	0,00083387306993537485	0,30018837186470336	0,00124079222	-0,083967640091894669	0,0031329455475213958	0,13091670055337424
1	1	0	0	0	0	2	108930,78	0,300000012	4,13423729	0,00083386986287766042	0,30018721786394195	0,00124104519	-0,083133770229017011	0,0031018327417874752	0,1317505704162519
1	1	0	0	0	0	2	108940,78	0,300000012	4,13513374	0,00083386262097623616	0,30018461143201434	0,00124130351	-0,082299907608040781	0,0030707202062586342	0,13258443303722814
1	1	0	0	0	0	2	108950,78	0,300000012	4,13625956	0,00083385117747220736	0,30018049185197331	0,00124162447	-0,081466056430568563	0,0030396080977023142	0,13341828421470034
1	1	0	0	0	0	2	108960,78	0,300000012	4,13748026	0,00083385343396498099	0,30018130322281478	0,00124199421	-0,080632202996603571	0,0030084959049532147	0,13425213764866531
1	1	0	0	0	0	2	108970,78	0,300000012	4,13826227	0,00083385615571008781	0,30018228286395098	0,00124223297	-0,079798346840893491	0,0029773836106521459	0,13508599380437539
1	1	0	0	0	0	2	108980,78	0,300000012	4,13912106	0,00083385732401576307	0,30018270364137414	0,00124249258	-0,078964489516877722	0,0029462712727600218	0,13591985112839114
1	1	0	0	0	0	2	108990,78	0,300000012	4,1398077	0,00083385849321219661	0,30018312546632506	0,00124270038	-0,078130631023665523	0,002915158891243607	0,13675370962160333
1	1	0	0	0	0	2	109000,78	0,300000012	4,1408186	0,00083386158004734259	0,30018423670501786	0,00124300842	-0,077296769443618176	0,0028840463945532218	0,13758757120165066
1	1	0	0	0	0	2	109010,78	0,300000012	4,14154387	0,00083386099424627098	0,30018402519178355	0,0012432253	-0,076462908449371891	0,002852933919719863	0,13842143219589693
1	1	0	0	0	0	2	109020,78	0,300000012	4,14215422	0,0008338632346093655	0,30018483121732198	0,00124341191	-0,075629045214762534	0,0028218213612955446	0,1392552954305063
1	1	0	0	0	0	2	109030,78	0,300000012	4,14305067	0,00083385855701565747	0,30018314731686982	0,00124367396	-0,074795186657746867	0,002790708977398537	0,14008915398752195
1	1	0	0	0	0	2	109040,78	0,300000012	4,14408112	0,00083385546428793011	0,30018203494933466	0,00124397874	-0,073961331193458931	0,0027595967088953581	0,14092300945180989
1	1	0	0	0	0	2	109050,78	0,300000012	4,14484406	0,00083384503794875405	0,30017828166720691	0,00124419213	-0,073127486155510182	0,0027284848294129133	0,14175685448975864
1	1	0	0	0	0	2	109060,78	0,300000012	4,14583588	0,00083384370320869824	0,3001778008627696	0,00124448794	-0,072293642452301478	0,0026973729997314141	0,14259069819296733
1	1	0	0	0	0	2	109070,78	0,300000012	4,14661789	0,00083384440773559936	0,30017805367672621	0,00124472368	-0,071459798044565888	0,0026662611437630691	0,14342454260070293
1	1	0	0	0	0	2	109080,78	0,300000012	4,14787722	0,0008338483154475689	0,30017946042523053	0,0012451075	-0,07062594972911831	0,0026351491419927363	0,14425839091615046
1	1	0	0	0	0	2	109090,78	0,300000012	4,14921236	0,00083385100658237926	0,30018042989603962	0,00124551239	-0,069792098722535936	0,0026040370398125456	0,14509224192273283
1	1	0	0	0	0	2	109100,78	0,300000012	4,15024281	0,00083384921298093261	0,30017978464559539	0,00124581903	-0,068958249509554995	0,0025729250045540362	0,14592609113571379
1	1	0	0	0	0	2	109110,78	0,300000012	4,15115833	0,00083384789076944192	0,30017930865886502	0,00124609179	-0,068124401618785549	0,0025418130186290154	0,1467599390264832
1	1	0	0	0	0	2	109120,78	0,300000012	4,15205526	0,00083384762569765248	0,30017921213065184	0,00124636071	-0,067290553993087898	0,0025107010425941795	0,14759378665218086
1	1	0	0	0	0	2	109130,78	0,300000012	4,15283728	0,00083384647932648653	0,30017879943121107	0,00124659366	-0,066456707513761408	0,0024795891093319936	0,14842763313150736
1	1	0	0	0	0	2	109140,78	0,300000012	4,15360022	0,00083385079396267725	0,30018035303646093	0,00124682917	-0,065622856719798746	0,0024484770150849299	0,14926148392547005
1	1	0	0	0	0	2	109150,78	0,300000012	4,15436316	0,00083384892661538394	0,30017968155603507	0,00124705536	-0,06478900779318336	0,0024173649905111046	0,15009533285208544
1	1	0	0	0	0	2	109160,78	0,300000012	4,15522194	0,0008338504840383927	0,30018024221723872	0,00124731555	-0,063955157309144973	0,0023862529078277328	0,15092918333612381
1	1	0	0	0	0	2	109170,78	0,300000012	4,15621376	0,00083384561528265485	0,30017848870307072	0,00124760601	-0,06312131169386231	0,0023551410068041834	0,15176302895140646
1	1	0	0	0	0	2	109180,78	0,300000012	4,15691948	0,00083384800705313677	0,30017934940237165	0,00124782138	-0,062287463686809178	0,0023240290165404618	0,15259687695845962
1	1	0	0	0	0	2	109190,78	0,300000012	4,15804529	0,0008338486416654455	0,30017957791419891	0,00124816026	-0,061453615045143731	0,0022929170025985014	0,15343072560012506
1	1	0	0	0	0	2	109200,78	0,300000012	4,15827417	0,00083385065131054989	0,30018030243446208	0,00124823197	-0,060619764393833178	0,0022618049136739808	0,15426457625143562
1	1	0	0	0	0	2	109210,78	0,300000012	4,15878916	0,00083385071058902477	0,30018032377429133	0,00124838669	-0,05978591368324416	0,0022306928225377002	0,15509842696202464
1	1	0	0	0	0	2	109220,78	0,300000012	4,1598196	0,00083384072632094234	0,30017672903312832	0,00124868099	-0,058952072956923213	0,0021995811039278854	0,1559322676883456
1	1	0	0	0	0	2	109230,78	0,300000012	4,16041088	0,00083384127942224346	0,30017692750268275	0,00124885933	-0,058118231677500966	0,0021684693646811178	0,15676610896776784
1	1	0	0	0	0	2	109240,78	0,300000012	4,161479	0,00083384943241212096	0,3001798625227744	0,00124919217	-0,057284382245088851	0,002137357321235336	0,15759995840017997
1	1	0	0	0	0	2	109250,78	0,300000012	4,16226101	0,00083385284225642675	0,30018109089337261	0,0012494321	-0,056450529402832429	0,0021062451505636787	0,15843381124243638
1	1	0	0	0	0	2	109260,78	0,300000012	4,16281462	0,00083384971905085773	0,30017996682716826	0,00124959357	-0,055616679683781568	0,0020751330964230202	0,15926766096148723
1	1	0	0	0	0	2	109270,78	0,300000012	4,16352034	0,00083384763622780646	0,30017921687193005	0,0012498023	-0,05478283204755376	0,0020440211199952902	0,16010150859771504
1	1	0	0	0	0	2	109280,78	0,300000012	4,16445494	0,0008338391847196553	0,30017617342465562	0,00125007017	-0,053948992862834112	0,0020129094589046928	0,16093534778243472
1	1	0	0	0	0	2	109290,78	0,300000012	4,16512299	0,00083384720740384525	0,30017906153737414	0,00125028274	-0,053115145655430266	0,001981797498476961	0,16176919498983856
1	1	0	0	0	0	2	109300,78	0,300000012	4,16556168	0,00083384857189489728	0,30017955327560512	0,00125041639	-0,052281297083535373	0,0019506854871382342	0,16260304356173344
1	1	0	0	0	0	2	109310,78	0,300000012	4,16624832	0,00083385764137572723	0,30018281881125613	0,00125063618	-0,051447439442159642	0,0019195731374049827	0,16343690120310915
1	1	0	0	0	0	2	109320,78	0,300000012	4,16636276	0,00083385071582429939	0,30018032566201062	0,00125066016	-0,050613588726335341	0,001888461046073367	0,16427075191893344
1	1	0	0	0	0	2	109330,78	0,300000012	4,16731644	0,0008338433924019337	0,30017768833156512	0,00125093537	-0,049779745333933408	0,0018573492279884864	0,16510459531133539
1	1	0	0	0	0	2	109340,78	0,300000012	4,16849947	0,00083384533891247373	0,30017838889377536	0,00125129346	-0,048945899995020934	0,0018262373372766803	0,16593844065024787
1	1	0	0	0	0	2	109350,78	0,300000012	4,16930056	0,00083384633250700109	0,30017874680438157	0,00125153537	-0,048112053662513933	0,0017951254094925264	0,16677228698275488
1	1	0	0	0	0	2	109360,78	0,300000012	4,17013979	0,00083385004617439373	0,30018008459280851	0,00125179288	-0,047278203616339539	0,001764013343146449	0,16760613702892928
1	1	0	0	0	0	2	109370,78	0,300000012	4,17103672	0,0008338444916721847	0,30017808501152813	0,00125205377	-0,04644435912466736	0,0017329014840463171	0,16843998152060144
1	1	0	0	0	0	2	109380,79	0,300000012	4,17183781	0,00083383826457129574	0,30017584267050912	0,00125228497	-0,045610520860096058	0,0017017898572876915	0,16927381978517274
1	1	0	0	0	0	2	109390,79	0,300000012	4,1725626	0,0008338304307427671	0,30017302205875808	0,00125249068	-0,044776690429353293	0,0016706785228197414	0,17010765021591549
1	1	0	0	0	0	2	109400,79	0,300000012	4,17311621	0,0008338286636703543	0,30017238592526285	0,00125265424	-0,043942861765682931	0,0016395672542836384	0,17094147887958582
1	1	0	0	0	0	2	109410,79	0,300000012	4,17366934	0,00083382553396953472	0,30017126027559699	0,00125281559	-0,043109036231713402	0,0016084561025208816	0,17177530441355536
1	1	0	0	0	0	2	109420,79	0,300000012	4,1744132	0,00083382525453137037	0,30017115977768851	0,00125303841	-0,042275210977182029	0,0015773449611843382	0,17260912966808675
1	1	0	0	0	0	2	109430,79	0,300000012	4,17519522	0,0008338230578485463	0,30017036867999411	0,00125326985	-0,041441387919333478	0,001546233901808984	0,1734429527259353
1	1	0	0	0	0	2	109440,79	0,300000012	4,17590141	0,00083383044698834432	0,30017302790705024	0,00125349301	-0,040607557472345139	0,0015151225667348896	0,17427678317292365
1	1	0	0	0	0	2	109450,79	0,300000012	4,1764164	0,00083383919128113331	0,30017617579023539	0,00125366065	-0,039773718281064006	0,0014840109053994746	0,17511062236420477
1	1	0	0	0	0	2	109460,79	0,300000012	4,17714119	0,00083384233333004851	0,30017730760437907	0,00125388301	-0,038939875947733958	0,0014528991268299898	0,17594446469753482
1	1	0	0	0	0	2	109470,79	0,300000012	4,17803764	0,00083383192523154957	0,30017356118229741	0,00125413644	-0,038106044022502406	0,0014217877366006533	0,17677829662276637
1	1	0	0	0	0	2	109480,79	0,300000012	4,17868662	0,00083382739547557299	0,30017193050237069	0,00125432445	-0,037272216627026835	0,0013906765153826032	0,17761212401824195
1	1	0	0	0	0	2	109490,79	0,300000012	4,17954493	0,00083383955233130189	0,3001763057622327	0,00125460036	-0,036438377074695533	0,001359564840575921	0,17844596357057325
1	1	0	0	0	0	2	109500,79	0,300000012	4,17983103	0,00083383308898574784	0,30017397900382234	0,00125467649	-0,035604543985709786	0,0013284534069253509	0,17927979665955898
1	1	0	0	0	0	2	109510,79	0,300000012	4,18040323	0,00083382383789122112	0,30017064905301037	0,00125483435	-0,034770720147818566	0,0012973423184455562	0,18011362049745021
1	1	0	0	0	0	2	109520,79	0,300000012	4,1814146	0,00083383371349010202	0,30017420493916026	0,00125515275	-0,033936886434328467	0,0012662308614938893	0,18094745421094029
1	1	0	0	0	0	2	109530,79	0,300000012	4,18191051	0,00083383839195470003	0,3001758891531328	0,00125530874	-0,033103048042373766	0,0012351192299824179	0,18178129260289501
1	1	0	0	0	0	2	109540,79	0,300000012	4,18295956	0,00083383741058243648	0,30017553505539066	0,00125562213	-0,032269210631791334	0,0012040076350872653	0,18261513001347744
1	1	0	0	0	0	2	109550,79	0,300000012	4,18402815	0,0008338383215384352	0,30017586268555821	0,00125594425	-0,031435372310252896	0,0011728960062031194	0,18344896833501587
1	1	0	0	0	0	2	109560,79	0,300000012	4,18498182	0,00083383645267619034	0,30017518996435859	0,00125622773	-0,030601535857576704	0,0011417844470487363	0,18428280478769203
1	1	0	0	0	0	2	109570,79	0,300000012	4,18542051	0,00083383827131324339	0,30017584572306669	0,00125636219	-0,029767697586263462	0,0011106728200385602	0,18511664305900531
1	1	0	0	0	0	2	109580,79	0,300000012	4,18614578	0,00083384407136175373	0,30017793369970541	0,00125658861	-0,028933853514901709	0,0010795609766207755	0,18595048713036704
1	1	0	0	0	0	2	109590,79	0,300000012	4,18648911	0,00083384030777050394	0,3001765783444073	0,00125668594	-0,02810001320713121	0,0010484492736276406	0,18678432743813757
1	1	0	0	0	0	2	109600,79	0,300000012	4,18780518	0,00083383747493227328	0,30017555791336384	0,00125707674	-0,027266175732198934	0,0010173376763315088	0,18761816491306982
1	1	0	0	0	0	2	109610,79	0,300000012	4,18872118	0,0008338400645272599	0,30017649015000672	0,00125735567	-0,026432335667671674	0,0009862259824141065	0,18845200497759706
1	1	0	0	0	0	2	109620,79	0,300000012	4,18923616	0,00083384893582595725	0,30017968460619526	0,00125752355	-0,025598486731845715	0,00095511395749662221	0,18928585391342304
1	1	0	0	0	0	2	109630,79	0,300000012	4,18982744	0,00083384512645337318	0,30017831352474566	0,00125769537	-0,024764641605392346	0,00092400207471195072	0,19011969903987642
1	1	0	0	0	0	2	109640,79	0,300000012	4,18963671	0,00083384263627893389	0,30017741691367603	0,00125763437	-0,023930798969113411	0,00089289028483903565	0,19095354167615536
1	1	0	0	0	0	2	109650,79	0,300000012	4,18891191	0,00083383772535953254	0,30017564806539533	0,00125740934	-0,023096961243753878	0,00086177867819912614	0,19178737940151488
1	1	0	0	0	0	2	109660,79	0,300000012	4,18996096	0,00083383528922332659	0,30017477107369517	0,00125772052	-0,02226312595453055	0,00083066716245473395	0,19262121469073821
1	1	0	0	0	0	2	109670,79	0,300000012	4,19053316	0,00083383790385060838	0,30017571286604467	0,00125789631	-0,021429288050679939	0,0007995555491550825	0,1934550525945888
1	1	0	0	0	0	2	109680,79	0,300000012	4,19120073	0,00083385161641074547	0,30018064986323002	0,00125811738	-0,020595436434269197	0,00076844342422137562	0,19428890421099955
1	1	0	0	0	0	2	109690,79	0,300000012	4,19139194	0,00083387104146348096	0,30018764274402438	0,00125820411	-0,019761565392805712	0,00073733057451283379	0,19512277525246304
1	1	0	0	0	0	2	109700,79	0,300000012	4,19129658	0,00083387971855203315	0,3001907654731559	0,00125818851	-0,01892768567425368	0,00070621740105045171	0,19595665497101507
1	1	0	0	0	0	2	109710,79	0,300000012	4,19343281	0,00083386124289532506	0,30018411421443917	0,0012588019	-0,018093824431358355	0,00067510491693966221	0,1967905162139104
1	1	0	0	0	0	2	109720,79	0,300000012	4,19419622	0,00083386064021454912	0,30018389747729818	0,00125903019	-0,017259963791143808	0,00064399245531570278	0,19762437685412496
1	1	0	0	0	0	2	109730,79	0,300000012	4,19339466	0,00083386324006319053	0,30018483429891366	0,00125879352	-0,016426100551080618	0,00061287989668789504	0,19845824009418813
1	1	0	0	0	0	2	109740,79	0,300000012	4,19438696	0,00083386530764235392	0,3001855786196928	0,00125909445	-0,015592235243438266	0,00058176726091592883	0,1992921054018305
1	1	0	0	0	0	2	109750,79	0,300000012	4,19539785	0,00083386207700934669	0,30018441495083091	0,00125939306	-0,014758373166428918	0,00055065474568322362	0,20012596747883981
1	1	0	0	0	0	2	109760,79	0,300000012	4,19474936	0,00083386894614994522	0,30018688733129101	0,00125920877	-0,013924504220278973	0,00051954197415364717	0,20095983642498976
1	1	0	0	0	0	2	109770,79	0,300000012	4,19492102	0,00083387006781829734	0,30018729112391661	0,00125926198	-0,013090634152460677	0,00048842916077311635	0,20179370649280806
1	1	0	0	0	0	2	109780,79	0,300000012	4,19494009	0,00083387026934160128	0,3001873646912871	0,00125926803	-0,012256763883119075	0,00045731633987348006	0,20262757676214966
1	1	0	0	0	0	2	109790,79	0,300000012	4,19574118	0,00083386816101107328	0,30018660579815462	0,00125950528	-0,011422895722108002	0,00042620359763849043	0,20346144492316074
1	1	0	0	0	0	2	109800,79	0,300000012	4,19648504	0,00083386880768835546	0,30018683826888653	0,00125972962	-0,010589026914419645	0,00039509083127510202	0,20429531373084909
1	1	0	0	0	0	2	109810,79	0,300000012	4,19783497	0,00083385237756371494	0,30018092275813965	0,00126010994	-0,0097551745368559309	0,0003639786779417545	0,2051291661084128
1	1	0	0	0	0	2	109820,79	0,300000012	4,19871235	0,0008338499894969993	0,30018006307111398	0,00126036978	-0,0089213245473589325	0,00033286661371038682	0,20596301609790982
1	1	0	0	0	0	2	109830,79	0,300000012	4,19936132	0,0008338516593906615	0,30018066491984915	0,00126056711	-0,0080874728879682701	0,00030175448717304147	0,20679686775730048
1	1	0	0	0	0	2	109840,79	0,300000012	4,1996665	0,00083386099119981133	0,30018402472409568	0,00126067281	-0,0072536118967684595	0,00027064201245335002	0,20763072874850029
1	1	0	0	0	0	2	109850,66	0,300000012	4,1999526	0,00082290848093397094	0,30018555829618234	0,00126076513	-0,0064307034158344883	0,00023993819061748365	0,20845363722943424