EC-Lab ASCII FILE
Nb header lines : 3                           
mode	ox/red	error	control changes	Ns changes	counter inc.	Ns	time/s	control/V/mA	Ewe/V	dq/mA.h	<I>/mA	P/W	(Q-Qo)/mA.h	x	Capacity/mA.h
1	0	0	1	1	0	1	24131,15	-0,100000001	4,18821955	0	0	0	0	0	0
1	0	0	1	0	0	1	24141,15	-0,100000001	3,78329253	-0,0002763605246213313	-0,099489790068221414	0,000376398966	-0,0002763605246213313	1,0311382744299064E-005	0,0002763605246213313
1	0	0	1	0	0	1	24151,15	-0,100000001	3,44454908	-0,0002777337755784392	-0,099984160418765696	0,000344400352	-0,0005540943001997705	2,067400332816337E-005	0,0005540943001997705
1	0	0	1	0	0	1	24161,15	-0,100000001	3,1207757	-0,00027773410068617926	-0,099984277457553523	0,000312028511	-0,00083182840088594982	3,1036636042234573E-005	0,00083182840088594982
1	0	0	1	0	0	1	24171,15	-0,100000001	2,8223033	-0,00027773462971382672	-0,099984467907508928	0,000282186491	-0,0011095630305997766	4,1399288495038592E-005	0,0011095630305997766
1	0	0	1	0	0	1	24181,15	-0,100000001	2,52486181	-0,00027773432431452806	-0,099984357963760064	0,000252446684	-0,0013872973549143048	5,176192955298416E-005	0,0013872973549143048
1	0	0	1	0	0	1	24191,15	-0,100000001	2,26570582	-0,00027773440224304797	-0,099984386018027571	0,000226535209	-0,001665031757157353	6,2124573518547584E-005	0,001665031757157353
1	0	0	1	0	0	1	24201,15	-0,100000001	2,05157542	-0,0002777342794165015	-0,099984341800470323	0,000205125412	-0,0019427660365738544	7,2487212901287424E-005	0,0019427660365738544
1	0	0	1	0	0	1	24211,15	-0,100000001	1,87068939	-0,00027773454277672701	-0,099984436610152653	0,000187039826	-0,0022205005793505818	8,284986211035136E-005	0,0022205005793505818
1	0	0	1	0	0	1	24221,15	-0,100000001	1,72212374	-0,00027773406562084954	-0,099984264834034662	0,000172185275	-0,002498234644971431	9,3212493516087962E-005	0,002498234644971431
1	0	0	1	0	0	1	24231,15	-0,100000001	1,60742056	-0,00027773389288493325	-0,099984202649104051	0,000160716663	-0,0027759685378563642	0,00010357511847681528	0,0027759685378563642
1	0	0	1	0	0	1	24241,15	-0,100000001	1,52949429	-0,00027773424358914298	-0,099984328902621082	0,000152925466	-0,0030537027814455072	0,00011393775652278819	0,0030537027814455072
1	0	0	1	0	0	1	24251,15	-0,100000001	1,49006331	-0,00027773397188178365	-0,09998423108797056	0,000148982828	-0,0033314367533272915	0,00012430038443099424	0,0033314367533272915
1	0	0	1	0	0	1	24261,15	-0,100000001	1,46743584	-0,00027773396348539325	-0,099984228065269965	0,000146720442	-0,0036091707168126842	0,00013466301202591963	0,0036091707168126842
1	0	0	1	0	0	1	24271,15	-0,100000001	1,45105243	-0,00027773372143093085	-0,099984140925662438	0,000145082231	-0,0038869044382436154	0,00014502563058946758	0,0038869044382436154
1	0	0	1	0	0	1	24281,15	-0,100000001	1,43791509	-0,00027773343338527613	-0,099984037229225485	0,000143768557	-0,0041646378716288909	0,0001553882384056449	0,0041646378716288909
1	0	0	1	0	0	1	24291,15	-0,100000001	1,42626727	-0,0002777337343225049	-0,099984145566629158	0,000142604113	-0,0044423716059513965	0,00016575085745019485	0,0044423716059513965
1	0	0	1	0	0	1	24301,15	-0,100000001	1,41597509	-0,00027773423551188573	-0,099984325994808448	0,000141575321	-0,0047201058414632826	0,00017611349519479443	0,0047201058414632826
1	0	0	1	0	0	1	24311,15	-0,100000001	1,40638947	-0,000277734138528092	-0,099984291080642291	0,000140616859	-0,0049978399799913741	0,00018647612932079827	0,0049978399799913741
1	0	0	1	0	0	1	24321,15	-0,100000001	1,3974148	-0,00027773381133087808	-0,099984173289643827	0,00013971937	-0,0052755737913222522	0,00019683875123863414	0,0052755737913222522
1	0	0	1	0	0	1	24331,15	-0,100000001	1,38878393	-0,00027773380376108819	-0,099984170564519437	0,000138856412	-0,0055533075950833408	0,00020720137287403098	0,0055533075950833408
1	0	0	1	0	0	1	24341,15	-0,100000001	1,38049674	-0,00027773403651143117	-0,09998425435464393	0,000138027943	-0,0058310416315947712	0,00021756400319365603	0,0058310416315947712
1	0	0	1	0	0	1	24351,15	-0,100000001	1,37240052	-0,00027773443097083104	-0,099984396360029606	0,000137218638	-0,0061087760625656026	0,00022792664823109168	0,0061087760625656026
1	0	0	1	0	0	1	24361,15	-0,100000001	1,36449516	-0,0002777341919636561	-0,099984310317445581	0,000136428105	-0,0063865102545292582	0,00023828928435084826	0,0063865102545292582
1	0	0	1	0	0	1	24371,15	-0,100000001	1,35687637	-0,00027773411089761392	-0,099984281133670042	0,000135666312	-0,0066642443654268723	0,00024865191744592182	0,0066642443654268723
1	0	0	1	0	0	1	24381,15	-0,100000001	1,3492384	-0,00027773484272965126	-0,099984544593206682	0,000134902992	-0,0069419792081565248	0,00025901457784663264	0,0069419792081565248
1	0	0	1	0	0	1	24391,15	-0,100000001	1,3417722	-0,00027773461767327453	-0,09998446357291008	0,000134156377	-0,0072197138258297984	0,00026937722985018749	0,0072197138258297984
1	0	0	1	0	0	1	24401,15	-0,100000001	1,33438253	-0,00027773423988744618	-0,099984327570010214	0,000133417343	-0,0074974480657172442	0,00027973986775804509	0,0074974480657172442
1	0	0	1	0	0	1	24411,15	-0,100000001	1,32718372	-0,00027773381606903344	-0,099984174995379789	0,000132697372	-0,0077751818817862771	0,0002901024898526679	0,0077751818817862771
1	0	0	1	0	0	1	24421,15	-0,100000001	1,32124519	-0,00027773408273773066	-0,099984270996111949	0,000132103742	-0,0080529159645240077	0,00030046512189705837	0,0080529159645240077
1	0	0	1	0	0	1	24431,15	-0,100000001	1,31765544	-0,00027773418260696864	-0,099984306949038054	0,000131744862	-0,0083306501471309773	0,00031082775766770438	0,0083306501471309773
1	0	0	1	0	0	1	24441,15	-0,100000001	1,31544042	-0,00027773405978828666	-0,099984262734312	0,000131523338	-0,0086083842069192653	0,00032119038885582022	0,0086083842069192653
1	0	0	1	0	0	1	24451,15	-0,100000001	1,31333995	-0,00027773467792239456	-0,099984485262593536	0,000131313616	-0,0088861188848416602	0,00033155304310735078	0,0088861188848416602
1	0	0	1	0	0	1	24461,15	-0,100000001	1,31097221	-0,00027773463181033731	-0,099984468662252736	0,000131076857	-0,0091638535166519974	0,00034191569563837837	0,0091638535166519974
1	0	0	1	0	0	1	24471,15	-0,100000001	1,30826068	-0,00027773466582886048	-0,099984480908921229	0,000130805769	-0,0094415881824808576	0,00035227834943868288	0,0094415881824808576
1	0	0	1	0	0	1	24481,15	-0,100000001	1,30484271	-0,00027773429309825104	-0,099984346725900198	0,000130463843	-0,0097193224755791078	0,00036264098933190714	0,0097193224755791078
1	0	0	1	0	0	1	24491,15	-0,100000001	1,30083275	-0,00027773405157071024	-0,099984259775984461	0,000130062806	-0,0099970565271498176	0,00037300362021341414	0,0099970565271498176
1	0	0	1	0	0	1	24501,15	-0,100000001	1,29626906	-0,0002777337855204112	-0,099984163997875648	0,000129606371	-0,010274790312670229	0,00038336624116822675	0,010274790312670229
1	0	0	1	0	0	1	24511,15	-0,100000001	1,29117072	-0,00027773386776405901	-0,099984193605589222	0,000129096661	-0,010552524180434288	0,00039372886519166054	0,010552524180434288
1	0	0	1	0	0	1	24521,15	-0,100000001	1,28551865	-0,00027773400434479114	-0,099984242774653389	0,00012853161	-0,01083025818477908	0,00040409149431110502	0,01083025818477908
1	0	0	1	0	0	1	24531,15	-0,100000001	1,27963746	-0,00027773399901886781	-0,099984240857320947	0,000127943582	-0,011107992183797949	0,00041445412323183213	0,011107992183797949
1	0	0	1	0	0	1	24541,15	-0,100000001	1,27343154	-0,0002777336805148257	-0,09998412619586441	0,000127322943	-0,011385725864312773	0,00042481674026874522	0,011385725864312773
1	0	0	1	0	0	1	24551,15	-0,100000001	1,26703477	-0,00027773372696919574	-0,099984142919437824	0,000126683386	-0,011663459591281968	0,00043517935903893331	0,011663459591281968
1	0	0	1	0	0	1	24561,15	-0,100000001	1,26059985	-0,00027773331565989389	-0,099983994848087373	0,000126039813	-0,011941192906941862	0,0004455419624626183	0,011941192906941862
1	0	0	1	0	0	1	24571,15	-0,100000001	1,25416481	-0,00027773378101115424	-0,099984162374543117	0,000125396618	-0,012218926687953016	0,00045590458324918458	0,012218926687953016
1	0	0	1	0	0	1	24581,15	-0,100000001	1,24763441	-0,0002777338419184089	-0,099984184301155072	0,000124743703	-0,012496660529871427	0,0004662672063082823	0,012496660529871427
1	0	0	1	0	0	1	24591,15	-0,100000001	1,24104667	-0,00027773335920398432	-0,099984010523960115	0,000124084821	-0,01277439388907541	0,00047662981135665587	0,01277439388907541
1	0	0	1	0	0	1	24601,15	-0,100000001	1,23438251	-0,00027773354031518106	-0,099984075723991731	0,000123418591	-0,013052127429390592	0,00048699242316253171	0,013052127429390592
1	0	0	1	0	0	1	24611,15	-0,100000001	1,22779477	-0,00027773342732878195	-0,099984035048887565	0,00012275987	-0,013329860856719373	0,00049735503075273306	0,013329860856719373
1	0	0	1	0	0	1	24621,15	-0,100000001	1,22099698	-0,0002777332744664616	-0,099983980018451571	0,000122080135	-0,013607594131185835	0,00050771763263943571	0,013607594131185835
1	0	0	1	0	0	1	24631,15	-0,100000001	1,21412277	-0,00027773374263693888	-0,099984148559825421	0,00012139303	-0,013885327873822774	0,00051808025199420832	0,013885327873822774
1	0	0	1	0	0	1	24641,15	-0,100000001	1,20726776	-0,00027773358957676426	-0,099984093458161894	0,000120707569	-0,014163061463399539	0,0005284428656381001	0,014163061463399539
1	0	0	1	0	0	1	24651,15	-0,100000001	1,2004317	-0,00027773395161786016	-0,09998422379295799	0,000120024233	-0,014440795415017398	0,00053880549279023187	0,014440795415017398
1	0	0	1	0	0	1	24661,15	-0,100000001	1,19342399	-0,00027773392384954624	-0,099984213796364864	0,000119323558	-0,014718529338866944	0,00054916811890629056	0,014718529338866944
1	0	0	1	0	0	1	24671,15	-0,100000001	1,1862824	-0,00027773382964688867	-0,099984179883407744	0,000118609474	-0,014996263168513834	0,00055953074150752141	0,014996263168513834
1	0	0	1	0	0	1	24681,15	-0,100000001	1,17912185	-0,00027773364757415322	-0,099984114337222182	0,000117893454	-0,015273996816087984	0,0005698933573153737	0,015273996816087984
1	0	0	1	0	0	1	24691,15	-0,100000001	1,17171299	-0,00027773350096783706	-0,099984061558947712	0,000117152624	-0,015551730317055824	0,00058025596765314714	0,015551730317055824
1	0	0	1	0	0	1	24701,15	-0,100000001	1,16443789	-0,0002777333350868689	-0,099984001841798464	0,000116425159	-0,015829463652142691	0,00059061857180167885	0,015829463652142691
1	0	0	1	0	0	1	24711,15	-0,100000001	1,15679991	-0,00027773347078139581	-0,099984050691828736	0,00011566154	-0,016107197122924086	0,00060098118101315558	0,016107197122924086
1	0	0	1	0	0	1	24721,15	-0,100000001	1,1491046	-0,00027773363240145978	-0,099984108875052467	0,000114892202	-0,016384930755325549	0,00061134379625489434	0,016384930755325549
1	0	0	1	0	0	1	24731,15	-0,100000001	1,14118028	-0,00027773353106114602	-0,099984072392539072	0,00011409985	-0,016662664286386691	0,00062170640771548954	0,016662664286386691
1	0	0	1	0	0	1	24741,15	-0,100000001	1,13312221	-0,00027773344577890301	-0,099984041690931213	0,00011329414	-0,016940397732165594	0,00063206901599408986	0,016940397732165594
1	0	0	1	0	0	1	24751,15	-0,100000001	1,12496865	-0,00027773324682066842	-0,099983970065965888	0,000112478832	-0,017218130978986262	0,00064243161684929062	0,017218130978986262
1	0	0	1	0	0	1	24761,15	-0,100000001	1,11635685	-0,0002777334515274399	-0,099984043760404531	0,000111617876	-0,017495864430513702	0,00065279422534237658	0,017495864430513702
1	0	0	1	0	0	1	24771,15	-0,100000001	1,10774505	-0,0002777326392879089	-0,099983751354169818	0,000110756504	-0,01777359706980161	0,00066315680352971341	0,01777359706980161
1	0	0	1	0	0	1	24781,15	-0,100000001	1,09894228	-0,00027773278210643267	-0,099983802768839002	0,000109876426	-0,018051329851908042	0,00067351938704580134	0,018051329851908042
1	0	0	1	0	0	1	24791,15	-0,100000001	1,08987224	-0,00027773287100303504	-0,099983834771616256	0,000108969609	-0,018329062722911078	0,00068388197387874112	0,018329062722911078
1	0	0	1	0	0	1	24801,15	-0,100000001	1,08070672	-0,00027773323167405197	-0,099983964613183898	0,00010805334	-0,01860679595458513	0,00069424457416880141	0,01860679595458513
1	0	0	1	0	0	1	24811,15	-0,100000001	1,07123566	-0,00027773284439370035	-0,099983825192255642	0,000107106236	-0,018884528798978829	0,00070460716000891123	0,018884528798978829
1	0	0	1	0	0	1	24821,15	-0,100000001	1,06155455	-0,0002777329951951073	-0,099983879480762803	0,000106138345	-0,019162261794173936	0,00071496975147562406	0,019162261794173936
1	0	0	1	0	0	1	24831,15	-0,100000001	1,05170155	-0,0002777333589974377	-0,099984010449603328	0,00010515334	-0,019439995153171373	0,00072533235651629107	0,019439995153171373
1	0	0	1	0	0	1	24841,15	-0,100000001	1,04179132	-0,00027773295529600646	-0,099983865117086323	0,000104162325	-0,019717728108467379	0,00073569494649431501	0,019717728108467379
1	0	0	1	0	0	1	24851,15	-0,100000001	1,03195739	-0,00027773261810590826	-0,099983743728649498	0,000103178965	-0,019995460726573286	0,00074605752389132288	0,019995460726573286
1	0	0	1	0	0	1	24861,15	-0,100000001	1,02208531	-0,0002777330091839863	-0,099983884516759309	0,000102192062	-0,020273193735757274	0,00075642011587997965	0,020273193735757274
1	0	0	1	0	0	1	24871,15	-0,100000001	1,01251876	-0,00027773280542757776	-0,099983811164451328	0,000101235484	-0,020550926541184851	0,00076678270026621107	0,020550926541184851
1	0	0	1	0	0	1	24881,15	-0,100000001	1,00320041	-0,00027773334146539373	-0,099984004138067418	0,000100303994	-0,020828659882650243	0,00077714530465273382	0,020828659882650243
1	0	0	1	0	0	1	24891,15	-0,100000001	0,9946841	-0,00027773457075489894	-0,099984446682294656	9,945294E-005	-0,021106394453405142	0,00078750795490570112	0,021106394453405142
1	0	0	1	0	0	1	24901,15	-0,100000001	0,986950696	-0,00027773536098251741	-0,099984731164240755	9,86800005E-005	-0,021384129814387661	0,00079787063464312307	0,021384129814387661
1	0	0	1	0	0	1	24911,15	-0,100000001	0,979942858	-0,0002777358097111185	-0,099984892706539098	9,79794786E-005	-0,021661865624098778	0,00080823333112321267	0,021661865624098778
1	0	0	1	0	0	1	24921,15	-0,100000001	0,973679721	-0,00027773581973463296	-0,099984896315004352	9,7353266E-005	-0,021939601443833411	0,0008185960279772928	0,021939601443833411
1	0	0	1	0	0	1	24931,15	-0,100000001	0,968294919	-0,00027773568481620816	-0,099984847744370829	9,68148233E-005	-0,022217337128649619	0,00082895871979738534	0,022217337128649619
1	0	0	1	0	0	1	24941,15	-0,100000001	0,963502109	-0,00027773551705148483	-0,099984787349069709	9,6335556E-005	-0,022495072645701104	0,00083932140535795046	0,022495072645701104
1	0	0	1	0	0	1	24951,15	-0,100000001	0,959186673	-0,00027773525359854102	-0,099984692506008794	9,59039826E-005	-0,022772807899299648	0,00084968408108873203	0,022772807899299648
1	0	0	1	0	0	1	24961,15	-0,100000001	0,955424964	-0,00027773574396222829	-0,09998486903693833	9,55280411E-005	-0,023050543643261878	0,00086004677511564211	0,023050543643261878
1	0	0	1	0	0	1	24971,15	-0,100000001	0,951873302	-0,00027773621305699149	-0,09998503791105513	9,51730908E-005	-0,02332827985631887	0,00087040948664510848	0,02332827985631887
1	0	0	1	0	0	1	24981,15	-0,100000001	0,948875427	-0,00027773628580197693	-0,099985064099250202	9,48733723E-005	-0,023606016142120848	0,00088077220088878797	0,023606016142120848
1	0	0	1	0	0	1	24991,15	-0,100000001	0,946183026	-0,00027773583003340499	-0,09998490002256233	9,46040163E-005	-0,02388375197215425	0,00089113489812712922	0,02388375197215425
1	0	0	1	0	0	1	25001,15	-0,100000001	0,943815291	-0,00027773569642379875	-0,099984851923103501	9,43672349E-005	-0,024161487668578048	0,00090149759038031654	0,024161487668578048
1	0	0	1	0	0	1	25011,15	-0,100000001	0,941542983	-0,00027773583034922682	-0,099984900136258189	9,41400795E-005	-0,024439223498927277	0,0009118602876304416	0,024439223498927277
1	0	0	1	0	0	1	25021,15	-0,100000001	0,939461648	-0,00027773602808556621	-0,099984971321341235	9,39320453E-005	-0,024716959527012845	0,00092222299225837542	0,024716959527012845
1	0	0	1	0	0	1	25031,15	-0,100000001	0,937609434	-0,00027773573666852381	-0,099984866411204685	9,37467557E-005	-0,024994695263681366	0,00093258568601314739	0,024994695263681366
1	0	0	1	0	0	1	25041,15	-0,100000001	0,935890913	-0,00027773575851610966	-0,099984874276335693	9,3574934E-005	-0,025272431022197475	0,00094294838058308224	0,025272431022197475
1	0	0	1	0	0	1	25051,15	-0,100000001	0,934191465	-0,00027773622087389232	-0,099985040725139456	9,34051714E-005	-0,025550167243071366	0,00095331109240420762	0,025550167243071366
1	0	0	1	0	0	1	25061,15	-0,100000001	0,932625651	-0,00027773595216870307	-0,09998494399127017	9,324852E-005	-0,02582790319524007	0,00096367379419958118	0,02582790319524007
1	0	0	1	0	0	1	25071,15	-0,100000001	0,930830717	-0,0002777361639601489	-0,09998502023619159	9,30691313E-005	-0,026105639359200218	0,00097403650389717811	0,026105639359200218
1	0	0	1	0	0	1	25081,15	-0,100000001	0,929322243	-0,00027773619582504038	-0,099985031707552653	9,29183152E-005	-0,026383375555025258	0,00098439921478369728	0,026383375555025258
1	0	0	1	0	0	1	25091,15	-0,100000001	0,927641869	-0,00027773596620352733	-0,099984949043806963	9,2750226E-005	-0,026661111521228787	0,00099476191710272909	0,026661111521228787
1	0	0	1	0	0	1	25101,15	-0,100000001	0,925904274	-0,00027773599728072685	-0,099984960231598912	9,25765053E-005	-0,026938847518509514	0,0010051246205812928	0,026938847518509514
1	0	0	1	0	0	1	25111,15	-0,100000001	0,92410934	-0,00027773609894845219	-0,099984996831980493	9,23970729E-005	-0,027216583617457965	0,001015487327853216	0,027216583617457965
1	0	0	1	0	0	1	25121,15	-0,100000001	0,922390819	-0,00027773631646980842	-0,099985075139669683	9,22253166E-005	-0,027494319933927776	0,0010258500432411538	0,027494319933927776
1	0	0	1	0	0	1	25131,15	-0,100000001	0,920538604	-0,00027773651932511062	-0,099985148167579366	9,20401872E-005	-0,027772056453252886	0,0010362127661978954	0,027772056453252886
1	0	0	1	0	0	1	25141,15	-0,100000001	0,918609977	-0,00027773658108876813	-0,099985170402496346	9,18473743E-005	-0,028049793034341654	0,0010465754914591221	0,028049793034341654
1	0	0	1	0	0	1	25151,15	-0,100000001	0,916509569	-0,00027773652665565414	-0,099985150806575066	9,16373465E-005	-0,028327529560997309	0,001056938214689376	0,028327529560997309
1	0	0	1	0	0	1	25161,15	-0,100000001	0,914714634	-0,00027773645775102909	-0,099985126000909734	9,14578559E-005	-0,028605266018748336	0,0010673009353487058	0,028605266018748336
1	0	0	1	0	0	1	25171,15	-0,100000001	0,912556887	-0,00027773658892884851	-0,099985173224925299	9,12421601E-005	-0,028883002607677184	0,0010776636609024565	0,028883002607677184
1	0	0	1	0	0	1	25181,15	-0,100000001	0,910475552	-0,00027773652492215235	-0,099985150182514406	9,10340314E-005	-0,029160739132599334	0,0010880263840680312	0,029160739132599334
1	0	0	1	0	0	1	25191,15	-0,100000001	0,908413291	-0,00027773670728049344	-0,099985215831517978	9,08278962E-005	-0,029438475839879827	0,0010983891140376408	0,029438475839879827
1	0	0	1	0	0	1	25201,15	-0,100000001	0,906102836	-0,00027773639777344134	-0,099985104408977882	9,059679E-005	-0,029716212237653267	0,0011087518324591261	0,029716212237653267
1	0	0	1	0	0	1	25211,15	-0,100000001	0,903945088	-0,00027773613976438838	-0,099985011525717696	9,03809632E-005	-0,029993948377417658	0,0011191145412539472	0,029993948377417658
1	0	0	1	0	0	1	25221,15	-0,100000001	0,901691914	-0,0002777362264179521	-0,099985042721001024	9,01557069E-005	-0,03027168460383561	0,0011294772532819286	0,03027168460383561
1	0	0	1	0	0	1	25231,15	-0,100000001	0,899534166	-0,00027773630918810762	-0,099985072518257357	8,99399893E-005	-0,030549420913023712	0,0011398399683981763	0,030549420913023712
1	0	0	1	0	0	1	25241,15	-0,100000001	0,897242785	-0,00027773625835445194	-0,099985054218141094	8,97108694E-005	-0,030827157171378163	0,0011502026816177517	0,030827157171378163
1	0	0	1	0	0	1	25251,15	-0,100000001	0,89487505	-0,00027773637925253974	-0,099985097741453222	8,94741679E-005	-0,031104893550630707	0,0011605653993481971	0,031104893550630707
1	0	0	1	0	0	1	25261,15	-0,100000001	0,892621815	-0,00027773666694098051	-0,099985201309293171	8,92489697E-005	-0,031382630217571686	0,0011709281278126856	0,031382630217571686
1	0	0	1	0	0	1	25271,15	-0,100000001	0,890349567	-0,0002777367773954239	-0,099985241072893261	8,90218143E-005	-0,03166036699496711	0,0011812908603983774	0,03166036699496711
1	0	0	1	0	0	1	25281,15	-0,100000001	0,888019979	-0,0002777362228470544	-0,099985041435477811	8,87887145E-005	-0,031938103217814163	0,0011916535722931243	0,031938103217814163
1	0	0	1	0	0	1	25291,15	-0,100000001	0,885709465	-0,00027773606239590378	-0,099984983673062899	8,85576446E-005	-0,032215839280210067	0,0012020162782012227	0,032215839280210067
1	0	0	1	0	0	1	25301,15	-0,100000001	0,883322597	-0,00027773615388158294	-0,099985016607907802	8,83190223E-005	-0,032493575434091648	0,001212378987522775	0,032493575434091648
1	0	0	1	0	0	1	25311,15	-0,100000001	0,880954862	-0,00027773615313279958	-0,099985016338345779	8,80822845E-005	-0,032771311587224448	0,0012227416968163891	0,032771311587224448
1	0	0	1	0	0	1	25321,15	-0,100000001	0,878587067	-0,00027773609752994445	-0,099984996321317696	8,78455248E-005	-0,033049047684754387	0,0012331044040353859	0,033049047684754387
1	0	0	1	0	0	1	25331,15	-0,100000001	0,876161993	-0,00027773624993819328	-0,099985051188287949	8,76031045E-005	-0,033326783934692589	0,0012434671169409395	0,033326783934692589
1	0	0	1	0	0	1	25341,15	-0,100000001	0,873813331	-0,00027773639507426157	-0,099985103437273152	8,73683166E-005	-0,033604520329766842	0,0012538298352617147	0,033604520329766842
1	0	0	1	0	0	1	25351,15	-0,100000001	0,871254623	-0,00027773624392433299	-0,099985049023298202	8,71124357E-005	-0,033882256573691174	0,001264192547942883	0,033882256573691174
1	0	0	1	0	0	1	25361,15	-0,100000001	0,868848681	-0,00027773613294296794	-0,09998500907000631	8,68718416E-005	-0,034159992706634144	0,0012745552564831877	0,034159992706634144
1	0	0	1	0	0	1	25371,15	-0,100000001	0,866633654	-0,00027773587227322986	-0,099984915228899469	8,6650296E-005	-0,034437728578907373	0,0012849179552975534	0,034437728578907373
1	0	0	1	0	0	1	25381,15	-0,100000001	0,864132226	-0,00027773624842986461	-0,099985050645289626	8,64003014E-005	-0,034715464827337242	0,0012952806681468293	0,034715464827337242
1	0	0	1	0	0	1	25391,15	-0,100000001	0,861688077	-0,00027773647834236426	-0,099985133413790477	8,61559965E-005	-0,03499320130567961	0,0013056433895744496	0,03499320130567961
1	0	0	1	0	0	1	25401,15	-0,100000001	0,859186649	-0,00027773634454732138	-0,099985085247574477	8,59058491E-005	-0,035270937650226931	0,0013160061060099971	0,035270937650226931
1	0	0	1	0	0	1	25411,15	-0,100000001	0,856647015	-0,00027773606467867891	-0,099984984494861965	8,56518382E-005	-0,035548673714905613	0,0013263688120032688	0,035548673714905613
1	0	0	1	0	0	1	25421,15	-0,100000001	0,85433656	-0,00027773616995414099	-0,099985022394028762	8,54208629E-005	-0,03582640988485975	0,0013367315219245099	0,03582640988485975
1	0	0	1	0	0	1	25431,15	-0,100000001	0,851758718	-0,00027773637694699894	-0,099985096911458547	8,51631776E-005	-0,036104146261806752	0,0013470942395689331	0,036104146261806752
1	0	0	1	0	0	1	25441,15	-0,100000001	0,849276364	-0,00027773646273670925	-0,099985127795754624	8,49150092E-005	-0,036381882724543462	0,0013574569604142853	0,036381882724543462
1	0	0	1	0	0	1	25451,15	-0,100000001	0,846851349	-0,00027773623798746205	-0,099985046886024653	8,46724724E-005	-0,036659618962530925	0,0013678196728739413	0,036659618962530925
1	0	0	1	0	0	1	25461,15	-0,100000001	0,844273508	-0,00027773629609122874	-0,099985067803380902	8,44147435E-005	-0,036937355258622157	0,0013781823875015266	0,036937355258622157
1	0	0	1	0	0	1	25471,15	-0,100000001	0,841714799	-0,00027773606554956896	-0,099984984808382387	8,41588408E-005	-0,037215091324171725	0,0013885450935272925	0,037215091324171725
1	0	0	1	0	0	1	25481,15	-0,100000001	0,839194298	-0,00027773620807793405	-0,099985036118594445	8,39068744E-005	-0,037492827532249658	0,0013989078048709834	0,037492827532249658
1	0	0	1	0	0	1	25491,15	-0,100000001	0,836540103	-0,00027773617781491741	-0,099985025223908314	8,36414838E-005	-0,037770563710064576	0,0014092705150855206	0,037770563710064576
1	0	0	1	0	0	1	25501,15	-0,100000001	0,833981395	-0,00027773630712057155	-0,099985071773944358	8,33856902E-005	-0,038048300017185152	0,0014196332301246256	0,038048300017185152
1	0	0	1	0	0	1	25511,15	-0,100000001	0,831308067	-0,0002777362057728072	-0,099985035288748762	8,31183643E-005	-0,038326036222957958	0,0014299959413823094	0,038326036222957958
1	0	0	1	0	0	1	25521,15	-0,100000001	0,828863919	-0,00027773616478757725	-0,099985020534065805	8,28739794E-005	-0,038603772387745536	0,0014403586511107792	0,038603772387745536
1	0	0	1	0	0	1	25531,15	-0,100000001	0,826324344	-0,00027773627487487264	-0,099985060165492621	8,26200921E-005	-0,03888150866262041	0,0014507213649467539	0,03888150866262041
1	0	0	1	0	0	1	25541,15	-0,100000001	0,823651016	-0,00027773608438960381	-0,099984991590795021	8,23527371E-005	-0,039159244747010016	0,0014610840716754669	0,039159244747010016
1	0	0	1	0	0	1	25551,15	-0,100000001	0,821206868	-0,00027773646963718861	-0,099985130279927206	8,21084759E-005	-0,039436981216647213	0,0014714467927782854	0,039436981216647213
1	0	0	1	0	0	1	25561,15	-0,100000001	0,818514526	-0,0002777367183065249	-0,099985219800889357	8,18393528E-005	-0,039714717934953734	0,0014818095231592912	0,039714717934953734
1	0	0	1	0	0	1	25571,15	-0,100000001	0,815898478	-0,00027773662407944598	-0,099985185879140544	8,15777603E-005	-0,039992454559033184	0,0014921722500245581	0,039992454559033184
1	0	0	1	0	0	1	25581,15	-0,100000001	0,813301563	-0,00027773658224319421	-0,099985170818089715	8,13180959E-005	-0,040270191141276378	0,0015025349753288579	0,040270191141276378
1	0	0	1	0	0	1	25591,15	-0,100000001	0,810685575	-0,00027773641629724038	-0,099985111077545626	8,10564889E-005	-0,040547927557573619	0,0015128976944414912	0,040547927557573619
1	0	0	1	0	0	1	25601,15	-0,100000001	0,807993233	-0,00027773604491766957	-0,099984977380898509	8,07871838E-005	-0,040825663602491283	0,0015232603996974531	0,040825663602491283
1	0	0	1	0	0	1	25611,15	-0,100000001	0,805453598	-0,00027773639565582077	-0,09998510364663447	8,05333621E-005	-0,041103399998147104	0,0015336231180399274	0,041103399998147104
1	0	0	1	0	0	1	25621,15	-0,100000001	0,802799404	-0,0002777369476378792	-0,099985302360177907	8,02681388E-005	-0,041381136945784986	0,0015439858569775942	0,041381136945784986
1	0	0	1	0	0	1	25631,15	-0,100000001	0,800240695	-0,00027773705834440061	-0,099985342214526093	8,0012338E-005	-0,041658874004129382	0,0015543486000458701	0,041658874004129382
1	0	0	1	0	0	1	25631,40	-0,100000001	0,800049722	-6,8545589306288294E-006	-0,099985463750189632	7,99933405E-005	-0,041665728563060013	0,0015546043528556243	0,041665728563060013
1	1	0	0	1	0	2	25631,40	0,100000001	0,811882675	5,4883191155062784E-009	0,032929913128950726	2,67352261E-005	-0,041665723074740896	0,0015546041480790589	5,4883191155062784E-009
1	1	0	0	0	0	2	25641,40	0,100000001	0,83336395	0,0002778074582359857	0,10001068617580357	8,33453014E-005	-0,041387915616504909	0,0015442387782961741	0,00027781294655510122
1	1	0	0	0	0	2	25651,40	0,100000001	0,839302421	0,0002778079949191047	0,10001087938172877	8,39393761E-005	-0,041110107621585805	0,001533873388488921	0,00055562094147420595
1	1	0	0	0	0	2	25661,40	0,100000001	0,84449625	0,00027780788994497728	0,10001084159104243	8,44587776E-005	-0,040832299731640826	0,001523508002598393	0,00083342883141918323
1	1	0	0	0	0	2	25671,40	0,100000001	0,8491745	0,00027780811915339699	0,10001092410607451	8,49267235E-005	-0,040554491612487424	0,001513142608155791	0,0011112369505725803
1	1	0	0	0	0	2	25681,40	0,100000001	0,853509068	0,00027780793841886851	0,10001085904164349	8,53601741E-005	-0,040276683674068557	0,0015027772204566374	0,0013890448889914488
1	1	0	0	0	0	2	25691,40	0,100000001	0,857595384	0,00027780824422877696	0,10001096913321187	8,57689447E-005	-0,039998875429839782	0,0014924118213473046	0,0016668531332202259
1	1	0	0	0	0	2	25701,40	0,100000001	0,86185354	0,00027780790996220378	0,10001084879724405	8,61947046E-005	-0,039721067519877587	0,0014820464347099078	0,0019446610431824298
1	1	0	0	0	0	2	25711,40	0,100000001	0,865691602	0,00027780780060547923	0,10001080942882275	8,65785187E-005	-0,039443259719272102	0,0014716810521527565	0,0022224688437879088
1	1	0	0	0	0	2	25721,40	0,100000001	0,869529665	0,00027780762945322525	0,10001074781401056	8,69623109E-005	-0,03916545208981888	0,0014613156759815264	0,0025002764732411344
1	1	0	0	0	0	2	25731,40	0,100000001	0,873310506	0,00027780773830537997	0,10001078700078674	8,73404715E-005	-0,038887644351513498	0,0014509502957488762	0,0027780842115465142
1	1	0	0	0	0	2	25741,40	0,100000001	0,877072155	0,00027780783622587722	0,10001082225216618	8,7716704E-005	-0,038609836515287622	0,0014405849118626803	0,0030558920477723917
1	1	0	0	0	0	2	25751,40	0,100000001	0,880795658	0,00027780771624296906	0,1000107790583187	8,80890584E-005	-0,038332028799044653	0,0014302195324532083	0,0033336997640153606
1	1	0	0	0	0	2	25761,40	0,100000001	0,884481013	0,00027780840705293747	0,10001102774991037	8,84578549E-005	-0,038054220391991718	0,0014198541272686874	0,0036115081710682982
1	1	0	0	0	0	2	25771,40	0,100000001	0,888109028	0,00027780819140167699	0,10001095011545563	8,88206268E-005	-0,037776412200590042	0,0014094887301304048	0,003889316362469975
1	1	0	0	0	0	2	25781,40	0,100000001	0,891584277	0,00027780787078663712	0,10001083469403987	8,91680902E-005	-0,037498604329803405	0,0013991233449547005	0,0041671242332566125
1	1	0	0	0	0	2	25791,40	0,100000001	0,894983172	0,00027780807480422986	0,10001090814037418	8,95080811E-005	-0,037220796254999174	0,0013887579521668259	0,0044449323080608422
1	1	0	0	0	0	2	25801,40	0,100000001	0,898611248	0,00027780803877984483	0,10001089517159539	8,98709186E-005	-0,036942988216219328	0,0013783925607230691	0,0047227403468406867
1	1	0	0	0	0	2	25811,40	0,100000001	0,90210557	0,00027780798194391862	0,10001087471066171	9,02203683E-005	-0,036665180234275411	0,0013680271713999373	0,0050005483287846048
1	1	0	0	0	0	2	25821,40	0,100000001	0,905332625	0,00027780783054232602	0,10001082020608771	9,0543057E-005	-0,036387372403733082	0,0013576617877258022	0,0052783561593269318
1	1	0	0	0	0	2	25831,40	0,100000001	0,908865213	0,0002778078188614713	0,10001081600097995	9,08963484E-005	-0,036109564584871616	0,0013472964044874957	0,0055561639781884032
1	1	0	0	0	0	2	25841,40	0,100000001	0,912225902	0,0002778077477916247	0,10001079041583488	9,12324322E-005	-0,035831756837079987	0,0013369310239009008	0,0058339717259800269
1	1	0	0	0	0	2	25851,40	0,100000001	0,915452957	0,00027780780320076477	0,10001081036312555	9,15551936E-005	-0,035553949033879219	0,0013265656412469163	0,0061117795291807923
1	1	0	0	0	0	2	25861,40	0,100000001	0,918851852	0,00027780777306275235	0,10001079951344096	9,18951118E-005	-0,035276141260816467	0,0013162002597174216	0,0063895873022435443
1	1	0	0	0	0	2	25871,40	0,100000001	0,922155261	0,00027780790999614531	0,10001084880946301	9,22255276E-005	-0,034998333350820326	0,0013058348730787579	0,0066673952122396902
1	1	0	0	0	0	2	25881,40	0,100000001	0,925363183	0,00027780796482703754	0,10001086854858443	9,25463755E-005	-0,034720525385993286	0,00129546948439428	0,0069452031770667277
1	1	0	0	0	0	2	25891,40	0,100000001	0,928552032	0,00027780792722809642	0,10001085501296549	9,28652807E-005	-0,03444271745876519	0,001285104097112669	0,0072230111042948237
1	1	0	0	0	0	2	25901,40	0,100000001	0,9316836	0,00027780790469257366	0,1000108469001772	9,31784671E-005	-0,034164909554072614	0,0012747387106718883	0,0075008190089873971
1	1	0	0	0	0	2	25911,40	0,100000001	0,934910655	0,00027780818712835514	0,10001094857705974	9,35013013E-005	-0,033887101366944262	0,0012643733136930493	0,007778627196115753
1	1	0	0	0	0	2	25921,40	0,100000001	0,937946737	0,00027780784228568282	0,10001082443369621	9,38048252E-005	-0,033609293524658579	0,0012540079295807542	0,0080564350384014349
1	1	0	0	0	0	2	25931,40	0,100000001	0,941173792	0,00027780706687975264	0,10001054528755797	9,41273029E-005	-0,033331486457778829	0,0012436425743998968	0,0083342421052811891
1	1	0	0	0	0	2	25941,40	0,100000001	0,944171667	0,00027780758356923859	0,10001073129577515	9,44272979E-005	-0,033053678874209587	0,0012332771999406597	0,0086120496888504269
1	1	0	0	0	0	2	25951,40	0,100000001	0,947169602	0,00027780733525628848	0,10001064190311203	9,47270382E-005	-0,032775871538953306	0,001222911834746313	0,0088898570241067136
1	1	0	0	0	0	2	25961,40	0,100000001	0,95035845	0,00027780733991786842	0,10001064358128085	9,5045958E-005	-0,032498064199035437	0,0012125464693780362	0,0091676643640245824
1	1	0	0	0	0	2	25971,40	0,100000001	0,953299046	0,00027780761242864858	0,10001074168516288	9,53401468E-005	-0,032220256586606784	0,001202181093842016	0,0094454719764532314
1	1	0	0	0	0	2	25981,40	0,100000001	0,956296921	0,00027780778058990838	0,10001080222321715	9,56400254E-005	-0,031942448806016877	0,0011918157120316728	0,0097232797570431398
1	1	0	0	0	0	2	25991,40	0,100000001	0,959142089	0,00027780774588137866	0,1000107897281463	9,5924559E-005	-0,031664641060135501	0,0011814503315163517	0,010001087502924518
1	1	0	0	0	0	2	26001,40	0,100000001	0,96200633	0,00027780764658293789	0,10001075398070718	9,62109771E-005	-0,031386833413552563	0,0011710849547059891	0,010278895149507456
1	1	0	0	0	0	2	26011,40	0,100000001	0,964927852	0,00027780807708452144	0,10001090896127914	9,65033105E-005	-0,031109025336468045	0,0011607195618330334	0,010556703226591978
1	1	0	0	0	0	2	26021,40	0,100000001	0,967582047	0,00027780789321454035	0,10001084276808515	9,67686938E-005	-0,030831217443253504	0,0011503541758205139	0,010834511119806518
1	1	0	0	0	0	2	26031,40	0,100000001	0,970408082	0,00027780762982368467	0,10001074794737595	9,7051241E-005	-0,030553409813429818	0,0011399887996354614	0,011112318749630203
1	1	0	0	0	0	2	26041,40	0,100000001	0,973100483	0,00027780774953381885	0,10001079104302477	9,7320546E-005	-0,030275602063896	0,0011296234189838629	0,011390126499164022
1	1	0	0	0	0	2	26051,40	0,100000001	0,976270199	0,00027780805481183859	0,10001090094311323	9,76376614E-005	-0,02999779400908416	0,001119258026941931	0,011667934553975859
1	1	0	0	0	0	2	26061,40	0,100000001	0,979650021	0,00027780822984501718	0,10001096395505829	9,7975746E-005	-0,029719985779239142	0,0011088926283692758	0,011945742783820877
1	1	0	0	0	0	2	26071,40	0,100000001	0,983564496	0,00027780807457988464	0,10001090805960989	9,8367178E-005	-0,029442177704659258	0,0010985272355897717	0,012223550858400763
1	1	0	0	0	0	2	26081,40	0,100000001	0,988319099	0,00027780785362836387	0,10001082851706146	9,88426109E-005	-0,029164369851030893	0,0010881618510542654	0,012501358712029125
1	1	0	0	0	0	2	26091,40	0,100000001	0,994143069	0,00027780749826712739	0,10001070058701475	9,94249422E-005	-0,02888656235276377	0,001077796479777765	0,012779166210296253
1	1	0	0	0	0	2	26101,40	0,100000001	1,00130367	0,00027780785346113974	0,10001082845686077	0,000100141209	-0,028608754499302627	0,0010674310952484986	0,013056974063757392
1	1	0	0	0	0	2	26111,40	0,100000001	1,00997281	0,0002778080328785711	0,10001089304713683	0,000101008285	-0,028330946466424054	0,0010570657040249261	0,013334782096635963
1	1	0	0	0	0	2	26121,40	0,100000001	1,02003574	0,00027780747753091984	0,10001069312197995	0,000102014485	-0,028053138988893136	0,0010467003335221216	0,013612589574166882
1	1	0	0	0	0	2	26131,40	0,100000001	1,0306716	0,00027780714682199891	0,10001057406676699	0,000103078055	-0,027775331842071136	0,0010363349753585112	0,013890396720988882
1	1	0	0	0	0	2	26141,40	0,100000001	1,04132664	0,0002778073931630287	0,10001066274953878	0,000104143764	-0,027497524448908109	0,0010259696080035862	0,014168204114151907
1	1	0	0	0	0	2	26151,40	0,100000001	1,05173337	0,00027780746667294038	0,10001068921310731	0,000105184583	-0,027219716982235165	0,0010156042379059072	0,014446011580824848
1	1	0	0	0	0	2	26161,40	0,100000001	1,06194913	0,00027780762183790406	0,1000107450724949	0,000106206324	-0,026941909360397261	0,0010052388620188147	0,014723819202662752
1	1	0	0	0	0	2	26171,40	0,100000001	1,07170653	0,00027780744733578627	0,10001068225173174	0,000107182103	-0,026664101913061472	0,00099487349264263091	0,015001626649998538
1	1	0	0	0	0	2	26181,40	0,100000001	1,08115852	0,00027780743040848112	0,10001067615790181	0,000108127395	-0,026386294482652992	0,0009845081238980279	0,015279434080407021
1	1	0	0	0	0	2	26191,40	0,100000001	1,09034324	0,000277807531396548	0,1000107125136063	0,000109046006	-0,026108486951256442	0,00097414275138542413	0,015557241611803565
1	1	0	0	0	0	2	26201,40	0,100000001	1,09943235	0,00027780748365446922	0,10001069532645776	0,000109954992	-0,025830679467601974	0,0009637773806541417	0,015835049095458038
1	1	0	0	0	0	2	26211,40	0,100000001	1,10798693	0,00027780711297773651	0,10001056188283237	0,000110810397	-0,025552872354624237	0,00095341202375330637	0,016112856208435773
1	1	0	0	0	0	2	26221,40	0,100000001	1,11652231	0,00027780745003248256	0,1000106832225424	0,000111664158	-0,025275064904591757	0,00094304665427650534	0,016390663658468256
1	1	0	0	0	0	2	26231,40	0,100000001	1,12473309	0,00027780761366337542	0,10001074212966454	0,000112485388	-0,024997257290928381	0,00093268127869441574	0,016668471272131632
1	1	0	0	0	0	2	26241,40	0,100000001	1,13258111	0,00027780696535731354	0,10001050873947946	0,000113270013	-0,024719450325571066	0,00092231592730149696	0,016946278237488944
1	1	0	0	0	0	2	26251,40	0,100000001	1,14039099	0,00027780713325904477	0,10001056918410342	0,000114051152	-0,024441643192312022	0,00091195056964393882	0,017224085370747987
1	1	0	0	0	0	2	26261,40	0,100000001	1,14795256	0,0002778075471230679	0,10001071817515357	0,000114807561	-0,024163835645188957	0,00090158519654455757	0,017501892917871056
1	1	0	0	0	0	2	26271,40	0,100000001	1,15562868	0,00027780711153853274	0,10001056136471899	0,000115575072	-0,023886028533650422	0,00089121983969742093	0,017779700029409587
1	1	0	0	0	0	2	26281,40	0,100000001	1,16282749	0,00027780706874488128	0,1000105459590043	0,000116295014	-0,023608221464905539	0,00088085448444697293	0,01805750709815447
1	1	0	0	0	0	2	26291,40	0,100000001	1,17004538	0,00027780721022726758	0,10001059689266397	0,000117016934	-0,023330414254678272	0,00087048912391762688	0,018335314308381738
1	1	0	0	0	0	2	26301,40	0,100000001	1,17730141	0,00027780723688958419	0,10001060649109808	0,000117742631	-0,023052607017788688	0,00086012376239347379	0,018613121545271325
1	1	0	0	0	0	2	26311,40	0,100000001	1,1844238	0,00027780708154332307	0,10001055056644338	0,000118454875	-0,022774799936245363	0,00084975840666549888	0,018890928626814646
1	1	0	0	0	0	2	26321,40	0,100000001	1,19143164	0,00027780712427902554	0,10001056595129645	0,000119155753	-0,022496992811966339	0,00083939304934299725	0,019168735751093674
1	1	0	0	0	0	2	26331,40	0,100000001	1,19872594	0,00027780656083838806	0,10001036311266453	0,000119885015	-0,022219186251127949	0,00082902771304322355	0,019446542311932061
1	1	0	0	0	0	2	26341,40	0,100000001	1,20563829	0,00027780705274641514	0,10001054019955638	0,000120576537	-0,021941379198381533	0,00081866235838969971	0,019724349364678477
1	1	0	0	0	0	2	26351,40	0,100000001	1,21293247	0,00027780683802068237	0,10001046289829168	0,000121305937	-0,021663572360360851	0,00080829701174788173	0,020002156202699158
1	1	0	0	0	0	2	26361,40	0,100000001	1,22001672	0,0002778071534505321	0,10001057645303894	0,000122014579	-0,02138576520691032	0,00079793165333695206	0,02027996335614969
1	1	0	0	0	0	2	26371,40	0,100000001	1,22721553	0,00027780701967204614	0,10001052829278342	0,000122734476	-0,021107958187238272	0,00078756629991747763	0,020557770375821738
1	1	0	0	0	0	2	26381,40	0,100000001	1,23439515	0,0002778069932460785	0,10001051877943496	0,000123452497	-0,020830151193992195	0,00077720094748399142	0,020835577369067814
1	1	0	0	0	0	2	26391,40	0,100000001	1,24167037	0,00027780741906248864	0,10001067207334446	0,000124180282	-0,020552343774929709	0,00076683557916272269	0,021113384788130304
1	1	0	0	0	0	2	26401,40	0,100000001	1,24890733	0,0002778074124438895	0,10001066969064875	0,000124904065	-0,020274536362485818	0,00075647021108840256	0,021391192200574192
1	1	0	0	0	0	2	26411,40	0,100000001	1,25625885	0,00027780705155721968	0,10001053977144605	0,000125639126	-0,019996729310928602	0,00074610485647924941	0,021668999252131411
1	1	0	0	0	0	2	26421,40	0,100000001	1,26353407	0,0002778069430399272	0,10001050070522027	0,000126366678	-0,019718922367888675	0,00073573950591902234	0,021946806195171338
1	1	0	0	0	0	2	26431,40	0,100000001	1,27098107	0,0002778073405308856	0,10001064380196701	0,000127111634	-0,019441115027357789	0,00072537414052787302	0,022224613535702224
1	1	0	0	0	0	2	26441,40	0,100000001	1,27842808	0,00027780731409870922	0,10001063428638339	0,000127856401	-0,019163307713259078	0,00071500877612294387	0,022502420849800934
1	1	0	0	0	0	2	26451,40	0,100000001	1,28591323	0,00027780734909988115	0,10001064688680546	0,00012860501	-0,018885500364159197	0,00070464341041207398	0,022780228198900816
1	1	0	0	0	0	2	26461,40	0,100000001	1,29328394	0,0002778077325796087	0,10001078493950907	0,000129342341	-0,018607692631579587	0,00069427803039305971	0,023058035931480426
1	1	0	0	0	0	2	26471,40	0,100000001	1,30076909	0,00027780742975614141	0,10001067592305949	0,00013009079	-0,018329885201823443	0,00068391266167279616	0,023335843361236566
1	1	0	0	0	0	2	26481,40	0,100000001	1,30833066	0,00027780748282745482	0,10001069502873256	0,000130847053	-0,018052077718995987	0,00067354729097237056	0,023613650844064019
1	1	0	0	0	0	2	26491,40	0,100000001	1,31587315	0,00027780763439296019	0,10001074959231517	0,000131601453	-0,017774270084603027	0,00066318191461683226	0,023891458478456979
1	1	0	0	0	0	2	26501,40	0,100000001	1,32351112	0,00027780733096185658	0,10001064035711654	0,000132365196	-0,017496462753641171	0,00065281654958271642	0,024169265809418835
1	1	0	0	0	0	2	26511,40	0,100000001	1,33124459	0,00027780717087992365	0,10001058272762	0,000133138543	-0,017218655582761248	0,00064245119052147264	0,024447072980298758
1	1	0	0	0	0	2	26521,40	0,100000001	1,3388443	0,00027780704835181434	0,10001053861750008	0,000133898546	-0,016940848534409434	0,00063208583603191757	0,024724880028650573
1	1	0	0	0	0	2	26531,40	0,100000001	1,34650135	0,00027780736839729882	0,1000106538338759	0,000134664486	-0,016663041166012134	0,00062172046960103488	0,025002687397047872
1	1	0	0	0	0	2	26541,40	0,100000001	1,35423481	0,00027780728865166509	0,10001062512544742	0,000135437876	-0,016385233877360467	0,00061135510614556902	0,025280494685699539
1	1	0	0	0	0	2	26551,40	0,100000001	1,36183465	0,00027780727792696819	0,1000106212645565	0,000136197923	-0,016107426599433501	0,00060098974309025626	0,025558301963626506
1	1	0	0	0	0	2	26561,40	0,100000001	1,36930072	0,00027780748067754835	0,10001069425476624	0,000136944713	-0,015829619118755952	0,00059062437247004672	0,025836109444304054
1	1	0	0	0	0	2	26571,40	0,100000001	1,37327242	0,00027780758785828947	0,1000107328398335	0,00013734198	-0,015551811530897664	0,00058025899785077952	0,026113917032162342
1	1	0	0	0	0	2	26581,40	0,100000001	1,3722986	0,00027780750463778774	0,10001070288045251	0,00013724454	-0,015274004026259875	0,00056989362633658106	0,026391724536800131
1	1	0	0	0	0	2	26591,40	0,100000001	1,37035096	0,0002778073574668831	0,10001064989892621	0,00013704969	-0,014996196668792992	0,00055952826031352704	0,026669531894267014
1	1	0	0	0	0	2	26601,40	0,100000001	1,36912882	0,00027780763913359904	0,10001075129894517	0,0001369276	-0,014718389029659392	0,00054916288378110899	0,026947339533400611
1	1	0	0	0	0	2	26611,40	0,100000001	1,36912882	0,00027780714350110957	0,10001057287124678	0,000136927352	-0,014440581886158282	0,00053879752574140563	0,027225146676901722
1	1	0	0	0	0	2	26621,40	0,100000001	1,36983538	0,00027780757551019389	0,10001072839451906	0,000136998235	-0,014162774310648086	0,00052843215158286246	0,027502954252411914
1	1	0	0	0	0	2	26631,40	0,100000001	1,37145841	0,00027780738641859757	0,10001066032154354	0,000137160459	-0,013884966924229488	0,00051806678447958099	0,027780761638830509
1	1	0	0	0	0	2	26641,40	0,100000001	1,37344432	0,00027780743952136902	0,1000106794385415	0,000137359093	-0,013607159484708118	0,00050770141539496384	0,028058569078351878
1	1	0	0	0	0	2	26651,40	0,100000001	1,37621307	0,00027780732891998355	0,10001063962204226	0,000137635943	-0,013329352155788138	0,00049733605043703296	0,028336376407271862
1	1	0	0	0	0	2	26661,40	0,100000001	1,37980294	0,00027780711276953421	0,10001056180787952	0,000137994866	-0,013051545043018602	0,00048697069354396595	0,028614183520041395
1	1	0	0	0	0	2	26671,40	0,100000001	1,38430929	0,00027780694152745936	0,10001050016073182	0,000138445466	-0,012773738101491144	0,00047660534304017107	0,028891990461568858
1	1	0	0	0	0	2	26681,40	0,100000001	1,38978958	0,00027780681429844765	0,10001045435828707	0,000138993491	-0,012495931287192694	0,00046623999728346163	0,029169797275867302
1	1	0	0	0	0	2	26691,40	0,100000001	1,39630091	0,00027780681242504051	0,1000104536838605	0,00013964469	-0,012218124474767654	0,00045587465159665152	0,029447604088292339
1	1	0	0	0	0	2	26701,40	0,100000001	1,40382433	0,00027780647860012118	0,1000103335068881	0,000140396936	-0,011940317996167531	0,00044550931836529798	0,029725410566892461
1	1	0	0	0	0	2	26711,40	0,100000001	1,41230249	0,00027780625216248957	0,10001025198933973	0,000141244731	-0,011662511744005043	0,00043514399358263699	0,03000321681905495
1	1	0	0	0	0	2	26721,40	0,100000001	1,42141068	0,00027780610184164512	0,10001019787383506	0,000142155564	-0,011384705642163398	0,00042477867440864877	0,030281022920896595
1	1	0	0	0	0	2	26731,40	0,100000001	1,43113005	0,00027780663144257338	0,10001038853017154	0,00014312788	-0,011106899010720826	0,00041441333547453786	0,030558829552339168
1	1	0	0	0	0	2	26741,40	0,100000001	1,44165134	0,0002778062546989984	0,10001025290248291	0,00014417991	-0,010829092756021827	0,00040404801059723629	0,03083663580703817
1	1	0	0	0	0	2	26751,40	0,100000001	1,45316553	0,00027780565780111485	0,10001003801924222	0,000145331142	-0,010551287098220712	0,00039368270799099725	0,031114441464839283
1	1	0	0	0	0	2	26761,40	0,100000001	1,46636009	0,00027780599179822538	0,10001015825820347	0,000146650898	-0,010273481106422486	0,00038331739292287699	0,03139224745663751
1	1	0	0	0	0	2	26771,40	0,100000001	1,48253345	0,00027780620406526659	0,10001023467433923	0,000148268518	-0,0099956749023572198	0,00037295206993478803	0,031670053660702771
1	1	0	0	0	0	2	26781,40	0,100000001	1,50582933	0,00027780612166764006	0,10001020501119331	0,000150598295	-0,0097178687806895795	0,00036258675002106528	0,031947859782370413
1	1	0	0	0	0	2	26791,40	0,100000001	1,555457	0,00027780597248714832	0,10001015130621565	0,000155561487	-0,0094400628082024307	0,00035222143567346726	0,032225665754857562
1	1	0	0	0	0	2	26801,40	0,100000001	1,72652817	0,00027780565323556464	0,10001003637564413	0,000172670145	-0,0091622571549668659	0,00034185613323757504	0,03250347140809312
1	1	0	0	0	0	2	26811,40	0,100000001	1,97115302	0,00027780611055551299	0,10001020101082755	0,000197135407	-0,0088844510444113523	0,00033149081373846074	0,032781277518648634
1	1	0	0	0	0	2	26821,40	0,100000001	2,18583727	0,00027780607987567782	0,10001018996608672	0,000218606001	-0,0086066449645356749	0,00032112549538405229	0,033059083598524314
1	1	0	0	0	0	2	26831,40	0,100000001	2,36768436	0,00027780616363344922	0,1000102201188848	0,000236792635	-0,0083288388009022259	0,00031076017390452877	0,033336889762157766
1	1	0	0	0	0	2	26841,40	0,100000001	2,52349877	0,00027780624753112592	0,10001025032204878	0,000252375758	-0,0080510325533711002	0,00030039484929467014	0,033614696009688896
1	1	0	0	0	0	2	26851,40	0,100000001	2,66170764	0,00027780597734575469	0,10001015305531395	0,000266197778	-0,0077732265760253453	0,00029002953476579098	0,03389250198703465
1	1	0	0	0	0	2	26861,40	0,100000001	2,7836287	0,00027780622858843866	0,1000102435026813	0,000278391381	-0,0074954203474369075	0,0002796642108627095	0,034170308215623085
1	1	0	0	0	0	2	26871,40	0,100000001	2,89292789	0,00027780644028178515	0,10001031971228694	0,000289322634	-0,0072176139071551219	0,00026929887906106461	0,034448114655904864
1	1	0	0	0	0	2	26881,40	0,100000001	2,99164867	0,00027780656983951722	0,10001036635307107	0,000299195875	-0,0069398073373156058	0,00025893354242544656	0,034725921225744384
1	1	0	0	0	0	2	26891,40	0,100000001	3,08131838	0,00027780658285733728	0,10001037103948634	0,000308163784	-0,0066620007544582682	0,00024856820530411616	0,035003727808601722
1	1	0	0	0	0	2	26901,40	0,100000001	3,16222334	0,00027780682395978112	0,10001045783636715	0,000316255406	-0,006384193930498487	0,00023820285918692938	0,035281534632561498
1	1	0	0	0	0	2	26911,40	0,100000001	3,23503232	0,00027780653450638058	0,10001035363314173	0,000323536718	-0,0061063873959921062	0,00022783752386963818	0,035559341167067885
1	1	0	0	0	0	2	26921,40	0,100000001	3,29911494	0,00027780646899673677	0,10001033004966966	0,000329945586	-0,0058285809269953702	0,00021747219099659984	0,035837147636064614
1	1	0	0	0	0	2	26931,40	0,100000001	3,35489106	0,00027780640911021165	0,10001030849052034	0,000335523684	-0,0055507745178851578	0,00020710686035800829	0,036114954045174829
1	1	0	0	0	0	2	26941,40	0,100000001	3,4041369	0,00027780649556095398	0,10001033961278798	0,000340448896	-0,0052729680223242042	0,0001967415264938233	0,036392760540735776
1	1	0	0	0	0	2	26951,40	0,100000001	3,44803596	0,00027780685500096941	0,10001046901119509	0,000344839704	-0,0049951611673232346	0,00018637617921844806	0,036670567395736749
1	1	0	0	0	0	2	26961,40	0,100000001	3,48817348	0,00027780651110245123	0,10001034520772704	0,000348853442	-0,0047173546562207834	0,00017601084477438893	0,0369483739068392
1	1	0	0	0	0	2	26971,40	0,100000001	3,52546597	0,00027780669234941405	0,10001041045663445	0,000352583302	-0,0044395479638713696	0,00016564550356776189	0,037226180599188614
1	1	0	0	0	0	2	26981,40	0,100000001	3,56010413	0,00027780708666352762	0,10001055240971706	0,000356047967	-0,0041617408772078419	0,00015528014764874512	0,037503987685852141
1	1	0	0	0	0	2	26991,40	0,100000001	3,59298539	0,00027780667635384534	0,10001040469822963	0,000359335914	-0,0038839342008539962	0,00014491480703893427	0,03778179436220599
1	1	0	0	0	0	2	27001,40	0,100000001	3,625103	0,00027780666968598963	0,10001040229780157	0,000362548017	-0,0036061275311680064	0,00013454946667791008	0,038059601031891981
1	1	0	0	0	0	2	27011,40	0,100000001	3,65695333	0,00027780703727197315	0,10001053462875722	0,000365733868	-0,0033283204938960333	0,00012418411260175862	0,038337408069163955
1	1	0	0	0	0	2	27021,40	0,100000001	3,68943381	0,00027780709468449155	0,10001055529726411	0,000368982321	-0,0030505133992115418	0,00011381875638346891	0,038615215163848448
1	1	0	0	0	0	2	27031,40	0,100000001	3,72206712	0,00027780705756569904	0,10001054193449864	0,000372245937	-0,0027727063416458429	0,00010345340155013126	0,03889302222141415
1	1	0	0	0	0	2	27041,40	0,100000001	3,75456643	0,00027780704277464086	0,10001053660971762	0,000375496194	-0,0024948992988712022	9,3088047268667891E-005	0,039170829264188794
1	1	0	0	0	0	2	27051,40	0,100000001	3,7864933	0,00027780706148511837	0,1000105433454896	0,000378689263	-0,0022170922373860838	8,272269228909143E-005	0,039448636325673914
1	1	0	0	0	0	2	27061,40	0,100000001	3,81746507	0,00027780704018928944	0,10001053567899107	0,000381786725	-0,0019392851971967942	7,2357338104090982E-005	0,0397264433658632
1	1	0	0	0	0	2	27071,40	0,100000001	3,84732962	0,00027780699406067533	0,10001051907268982	0,000384773419	-0,0016614782031361187	6,1991985640211149E-005	0,040004250359923872
1	1	0	0	0	0	2	27081,40	0,100000001	3,87629652	0,00027780673783396685	0,10001042683107365	0,000387670065	-0,001383671465302152	5,1626642736494304E-005	0,040282057097757837
1	1	0	0	0	0	2	27091,40	0,100000001	3,9042325	0,00027780652476598822	0,10001035012660042	0,000390463654	-0,0011058649405361637	4,1261307782630221E-005	0,040559863622523827
1	1	0	0	0	0	2	27101,40	0,100000001	3,93151903	0,00027780667523253293	0,10001040429455717	0,000393192808	-0,00082805826530363085	3,0895967214657056E-005	0,040837670297756358
1	1	0	0	0	0	2	27111,40	0,100000001	3,95787001	0,00027780676262122064	0,10001043575448512	0,000395828305	-0,00055025150268241024	2,0530623386094445E-005	0,041115477060377581
1	1	0	0	0	0	2	27121,40	0,100000001	3,98387718	0,00027780667107717859	0,1000104027986296	0,000398429169	-0,00027244483160523162	1,0165282973163131E-005	0,041393283731454758
1	1	0	0	0	0	2	27131,40	0,100000001	4,00934982	0,00027780676617638934	0,10001043703434587	0,000400976831	5,3619345711577178E-006	-2,0006098804759878E-007	0,041671090497631155
1	1	0	0	0	0	2	27141,40	0,100000001	4,0346508	0,0002778065837083591	0,10001037134585421	0,000403506914	0,00028316851827951683	-1,056539814113079E-005	0,041948897081339507
1	1	0	0	0	0	2	27151,40	0,100000001	4,05989408	0,00027780632454446618	0,10001027804685162	0,000406031148	0,00056097484282398304	-2,0930725624460685E-005	0,042226703405883974
1	1	0	0	0	0	2	27161,40	0,100000001	4,08523321	0,00027780615364304848	0,1000102165223405	0,000408565073	0,00083878099646703155	-3,1296046731228915E-005	0,042504509559527027
1	1	0	0	0	0	2	27171,40	0,100000001	4,11041927	0,00027780591977884374	0,10001013233122576	0,000411083573	0,0011165869162458754	-4,1661359112209222E-005	0,042782315479305869
1	1	0	0	0	0	2	27181,40	0,100000001	4,13486099	0,00027780618129215309	0,10001022647601827	0,000413528382	0,0013943930975380283	-5,2026681250602707E-005	0,043060121660598022
1	1	0	0	0	0	2	27191,40	0,100000001	4,15823317	0,00027780611449562845	0,10001020242926909	0,000415865739	0,001672199212033657	-6,2392000896728051E-005	0,043337927775093645
1	1	0	0	0	0	2	27201,40	0,100000001	4,18051672	0,0002778059536690513	0,10001014453170064	0,000418094074	0,0019500051657027078	-7,2757314542197568E-005	0,043615733728762701
1	1	0	0	0	0	2	27211,05	0,100000001	4,20005798	0,00026810546967635552	0,10001033101100093	0,000420049182	0,0022181106353790634	-8,2760690087460173E-005	0,043883839198439059