L432 800°C Ofen  Original Data
 3151 
 12            470 
 12.02         488 
 12.04         457 
 12.06         530 
 12.08         505 
 12.1          470 
 12.12         461 
 12.14         496 
 12.16         489 
 12.18         426 
 12.2          481 
 12.22         428 
 12.24         503 
 12.26         471 
 12.28         479 
 12.3          483 
 12.32         509 
 12.34         437 
 12.36         526 
 12.38         457 
 12.4          471 
 12.42         466 
 12.44         471 
 12.46         517 
 12.48         445 
 12.5          533 
 12.52         452 
 12.54         487 
 12.56         447 
 12.58         503 
 12.6          450 
 12.62         488 
 12.64         454 
 12.66         502 
 12.68         466 
 12.7          470 
 12.72         500 
 12.74         474 
 12.76         499 
 12.78         472 
 12.8          482 
 12.82         465 
 12.84         511 
 12.86         420 
 12.88         509 
 12.9          449 
 12.92         454 
 12.94         458 
 12.96         459 
 12.98         444 
 13            472 
 13.02         465 
 13.04         479 
 13.06         489 
 13.08         425 
 13.1          445 
 13.12         420 
 13.14         460 
 13.16         441 
 13.18         471 
 13.2          442 
 13.22         443 
 13.24         443 
 13.26         434 
 13.28         439 
 13.3          416 
 13.32         423 
 13.34         436 
 13.36         458 
 13.38         446 
 13.4          436 
 13.42         394 
 13.44         444 
 13.46         417 
 13.48         431 
 13.5          384 
 13.52         415 
 13.54         400 
 13.56         384 
 13.58         416 
 13.6          450 
 13.62         405 
 13.64         395 
 13.66         417 
 13.68         402 
 13.7          405 
 13.72         380 
 13.74         407 
 13.76         380 
 13.78         400 
 13.8          388 
 13.82         345 
 13.84         354 
 13.86         390 
 13.88         377 
 13.9          350 
 13.92         338 
 13.94         337 
 13.96         374 
 13.98         353 
 14            371 
 14.02         305 
 14.04         378 
 14.06         354 
 14.08         360 
 14.1          314 
 14.12         351 
 14.14         318 
 14.16         350 
 14.18         320 
 14.2          299 
 14.22         355 
 14.24         352 
 14.26         319 
 14.28         319 
 14.3          340 
 14.32         301 
 14.34         331 
 14.36         319 
 14.38         370 
 14.4          330 
 14.42         322 
 14.44         323 
 14.46         304 
 14.48         319 
 14.5          318 
 14.52         345 
 14.54         362 
 14.56         378 
 14.58         434 
 14.6          433 
 14.62         466 
 14.64         486 
 14.66         586 
 14.68         669 
 14.7          690 
 14.72         756 
 14.74         699 
 14.76         671 
 14.78         587 
 14.8          467 
 14.82         413 
 14.84         377 
 14.86         356 
 14.88         304 
 14.9          282 
 14.92         252 
 14.94         271 
 14.96         266 
 14.98         237 
 15            270 
 15.02         270 
 15.04         265 
 15.06         278 
 15.08         237 
 15.1          234 
 15.12         246 
 15.14         251 
 15.16         255 
 15.18         232 
 15.2          250 
 15.22         225 
 15.24         259 
 15.26         244 
 15.28         236 
 15.3          228 
 15.32         234 
 15.34         222 
 15.36         209 
 15.38         239 
 15.4          236 
 15.42         238 
 15.44         237 
 15.46         223 
 15.48         213 
 15.5          207 
 15.52         226 
 15.54         215 
 15.56         195 
 15.58         257 
 15.6          210 
 15.62         216 
 15.64         215 
 15.66         213 
 15.68         195 
 15.7          210 
 15.72         201 
 15.74         256 
 15.76         220 
 15.78         191 
 15.8          214 
 15.82         193 
 15.84         204 
 15.86         199 
 15.88         216 
 15.9          210 
 15.92         179 
 15.94         204 
 15.96         230 
 15.98         175 
 16            210 
 16.02         223 
 16.04         198 
 16.06         177 
 16.08         182 
 16.1          199 
 16.12         180 
 16.14         196 
 16.16         201 
 16.18         195 
 16.2          193 
 16.22         193 
 16.24         185 
 16.26         182 
 16.28         219 
 16.3          207 
 16.32         191 
 16.34         219 
 16.36         200 
 16.38         203 
 16.4          182 
 16.42         192 
 16.44         186 
 16.46         218 
 16.48         184 
 16.5          178 
 16.52         181 
 16.54         198 
 16.56         189 
 16.58         196 
 16.6          171 
 16.62         167 
 16.64         181 
 16.66         181 
 16.68         186 
 16.7          188 
 16.72         179 
 16.74         162 
 16.76         180 
 16.78         195 
 16.8          198 
 16.82         138 
 16.84         179 
 16.86         161 
 16.88         183 
 16.9          162 
 16.92         188 
 16.94         163 
 16.96         161 
 16.98         192 
 17            159 
 17.02         199 
 17.04         159 
 17.06         156 
 17.08         145 
 17.1          146 
 17.12         167 
 17.14         178 
 17.16         157 
 17.18         178 
 17.2          181 
 17.22         164 
 17.24         160 
 17.26         179 
 17.28         157 
 17.3          153 
 17.32         187 
 17.34         188 
 17.36         161 
 17.38         168 
 17.4          161 
 17.42         168 
 17.44         161 
 17.46         180 
 17.48         155 
 17.5          160 
 17.52         176 
 17.54         175 
 17.56         145 
 17.58         155 
 17.6          143 
 17.62         153 
 17.64         167 
 17.66         155 
 17.68         153 
 17.7          177 
 17.72         154 
 17.74         136 
 17.76         151 
 17.78         146 
 17.8          144 
 17.82         152 
 17.84         140 
 17.86         165 
 17.88         134 
 17.9          169 
 17.92         142 
 17.94         144 
 17.96         146 
 17.98         143 
 18            141 
 18.02         144 
 18.04         155 
 18.06         149 
 18.08         157 
 18.1          134 
 18.12         147 
 18.14         147 
 18.16         137 
 18.18         152 
 18.2          163 
 18.22         134 
 18.24         161 
 18.26         140 
 18.28         148 
 18.3          179 
 18.32         149 
 18.34         146 
 18.36         138 
 18.38         144 
 18.4          134 
 18.42         120 
 18.44         131 
 18.46         134 
 18.48         140 
 18.5          121 
 18.52         124 
 18.54         134 
 18.56         144 
 18.58         126 
 18.6          152 
 18.62         131 
 18.64         148 
 18.66         122 
 18.68         133 
 18.7          148 
 18.72         120 
 18.74         136 
 18.76         128 
 18.78         135 
 18.8          133 
 18.82         148 
 18.84         114 
 18.86         125 
 18.88         112 
 18.9          125 
 18.92         144 
 18.94         117 
 18.96         134 
 18.98         113 
 19            159 
 19.02         126 
 19.04         115 
 19.06         146 
 19.08         123 
 19.1          130 
 19.12         124 
 19.14         127 
 19.16         140 
 19.18         147 
 19.2          144 
 19.22         145 
 19.24         137 
 19.26         117 
 19.28         129 
 19.3          120 
 19.32         135 
 19.34         120 
 19.36         110 
 19.38         126 
 19.4          119 
 19.42         141 
 19.44         131 
 19.46         121 
 19.48         111 
 19.5          111 
 19.52         119 
 19.54         112 
 19.56         115 
 19.58         132 
 19.6          110 
 19.62         137 
 19.64         107 
 19.66         128 
 19.68         106 
 19.7          112 
 19.72         127 
 19.74         98 
 19.76         125 
 19.78         112 
 19.8          113 
 19.82         140 
 19.84         124 
 19.86         129 
 19.88         127 
 19.9          130 
 19.92         126 
 19.94         116 
 19.96         110 
 19.98         115 
 20            103 
 20.02         132 
 20.04         114 
 20.06         115 
 20.08         117 
 20.1          117 
 20.12         121 
 20.14         129 
 20.16         141 
 20.18         112 
 20.2          134 
 20.22         122 
 20.24         138 
 20.26         139 
 20.28         161 
 20.3          146 
 20.32         131 
 20.34         110 
 20.36         166 
 20.38         135 
 20.4          152 
 20.42         142 
 20.44         140 
 20.46         151 
 20.48         142 
 20.5          135 
 20.52         163 
 20.54         155 
 20.56         169 
 20.58         191 
 20.6          190 
 20.62         228 
 20.64         249 
 20.66         311 
 20.68         307 
 20.7          430 
 20.72         474 
 20.74         610 
 20.76         781 
 20.78         920 
 20.8          1040 
 20.82         1361 
 20.84         1441 
 20.86         1580 
 20.88         1631 
 20.9          1558 
 20.92         1432 
 20.94         1286 
 20.96         1040 
 20.98         799 
 21            612 
 21.02         475 
 21.04         363 
 21.06         290 
 21.08         204 
 21.1          187 
 21.12         178 
 21.14         171 
 21.16         136 
 21.18         136 
 21.2          150 
 21.22         148 
 21.24         129 
 21.26         158 
 21.28         155 
 21.3          115 
 21.32         160 
 21.34         160 
 21.36         144 
 21.38         183 
 21.4          186 
 21.42         193 
 21.44         206 
 21.46         201 
 21.48         212 
 21.5          196 
 21.52         190 
 21.54         170 
 21.56         168 
 21.58         153 
 21.6          146 
 21.62         131 
 21.64         163 
 21.66         131 
 21.68         139 
 21.7          117 
 21.72         110 
 21.74         123 
 21.76         125 
 21.78         112 
 21.8          123 
 21.82         123 
 21.84         116 
 21.86         117 
 21.88         78 
 21.9          97 
 21.92         102 
 21.94         95 
 21.96         92 
 21.98         114 
 22            107 
 22.02         105 
 22.04         115 
 22.06         85 
 22.08         109 
 22.1          97 
 22.12         94 
 22.14         98 
 22.16         107 
 22.18         104 
 22.2          99 
 22.22         99 
 22.24         111 
 22.26         104 
 22.28         112 
 22.3          105 
 22.32         106 
 22.34         122 
 22.36         93 
 22.38         107 
 22.4          114 
 22.42         110 
 22.44         95 
 22.46         111 
 22.48         85 
 22.5          115 
 22.52         105 
 22.54         127 
 22.56         111 
 22.58         110 
 22.6          104 
 22.62         110 
 22.64         100 
 22.66         80 
 22.68         86 
 22.7          97 
 22.72         109 
 22.74         71 
 22.76         83 
 22.78         101 
 22.8          109 
 22.82         73 
 22.84         104 
 22.86         91 
 22.88         90 
 22.9          116 
 22.92         113 
 22.94         107 
 22.96         93 
 22.98         101 
 23            99 
 23.02         107 
 23.04         96 
 23.06         102 
 23.08         108 
 23.1          109 
 23.12         129 
 23.14         110 
 23.16         115 
 23.18         102 
 23.2          111 
 23.22         127 
 23.24         104 
 23.26         100 
 23.28         112 
 23.3          98 
 23.32         111 
 23.34         89 
 23.36         100 
 23.38         86 
 23.4          102 
 23.42         97 
 23.44         97 
 23.46         99 
 23.48         90 
 23.5          97 
 23.52         105 
 23.54         93 
 23.56         81 
 23.58         88 
 23.6          87 
 23.62         84 
 23.64         84 
 23.66         103 
 23.68         97 
 23.7          81 
 23.72         99 
 23.74         95 
 23.76         104 
 23.78         79 
 23.8          91 
 23.82         75 
 23.84         103 
 23.86         117 
 23.88         88 
 23.9          107 
 23.92         96 
 23.94         83 
 23.96         102 
 23.98         106 
 24            85 
 24.02         92 
 24.04         107 
 24.06         113 
 24.08         127 
 24.1          133 
 24.12         109 
 24.14         157 
 24.16         142 
 24.18         149 
 24.2          174 
 24.22         192 
 24.24         191 
 24.26         207 
 24.28         234 
 24.3          307 
 24.32         352 
 24.34         374 
 24.36         517 
 24.38         694 
 24.4          806 
 24.42         1052 
 24.44         1340 
 24.46         1819 
 24.48         2323 
 24.5          2713 
 24.52         3231 
 24.54         3339 
 24.56         3397 
 24.58         3162 
 24.6          2823 
 24.62         2283 
 24.64         1882 
 24.66         1372 
 24.68         1037 
 24.7          727 
 24.72         483 
 24.74         378 
 24.76         319 
 24.78         241 
 24.8          201 
 24.82         212 
 24.84         169 
 24.86         184 
 24.88         147 
 24.9          150 
 24.92         110 
 24.94         126 
 24.96         119 
 24.98         96 
 25            102 
 25.02         99 
 25.04         117 
 25.06         92 
 25.08         86 
 25.1          87 
 25.12         94 
 25.14         82 
 25.16         92 
 25.18         105 
 25.2          81 
 25.22         92 
 25.24         99 
 25.26         75 
 25.28         88 
 25.3          117 
 25.32         101 
 25.34         108 
 25.36         125 
 25.38         119 
 25.4          120 
 25.42         137 
 25.44         146 
 25.46         202 
 25.48         168 
 25.5          201 
 25.52         264 
 25.54         254 
 25.56         241 
 25.58         268 
 25.6          247 
 25.62         241 
 25.64         235 
 25.66         223 
 25.68         194 
 25.7          194 
 25.72         183 
 25.74         141 
 25.76         137 
 25.78         109 
 25.8          113 
 25.82         113 
 25.84         111 
 25.86         95 
 25.88         88 
 25.9          74 
 25.92         87 
 25.94         83 
 25.96         75 
 25.98         92 
 26            75 
 26.02         74 
 26.04         73 
 26.06         79 
 26.08         71 
 26.1          83 
 26.12         63 
 26.14         81 
 26.16         79 
 26.18         84 
 26.2          71 
 26.22         62 
 26.24         63 
 26.26         82 
 26.28         76 
 26.3          75 
 26.32         74 
 26.34         77 
 26.36         73 
 26.38         81 
 26.4          84 
 26.42         63 
 26.44         76 
 26.46         63 
 26.48         69 
 26.5          74 
 26.52         75 
 26.54         79 
 26.56         77 
 26.58         65 
 26.6          60 
 26.62         75 
 26.64         72 
 26.66         74 
 26.68         63 
 26.7          72 
 26.72         80 
 26.74         60 
 26.76         74 
 26.78         61 
 26.8          73 
 26.82         82 
 26.84         75 
 26.86         63 
 26.88         73 
 26.9          66 
 26.92         69 
 26.94         68 
 26.96         81 
 26.98         62 
 27            61 
 27.02         64 
 27.04         71 
 27.06         56 
 27.08         71 
 27.1          65 
 27.12         74 
 27.14         66 
 27.16         44 
 27.18         69 
 27.2          68 
 27.22         76 
 27.24         68 
 27.26         67 
 27.28         63 
 27.3          74 
 27.32         64 
 27.34         68 
 27.36         62 
 27.38         60 
 27.4          66 
 27.42         52 
 27.44         61 
 27.46         69 
 27.48         62 
 27.5          62 
 27.52         56 
 27.54         67 
 27.56         70 
 27.58         57 
 27.6          58 
 27.62         64 
 27.64         62 
 27.66         65 
 27.68         63 
 27.7          65 
 27.72         73 
 27.74         67 
 27.76         69 
 27.78         80 
 27.8          61 
 27.82         65 
 27.84         43 
 27.86         64 
 27.88         76 
 27.9          52 
 27.92         75 
 27.94         77 
 27.96         64 
 27.98         74 
 28            61 
 28.02         71 
 28.04         56 
 28.06         68 
 28.08         63 
 28.1          66 
 28.12         65 
 28.14         46 
 28.16         66 
 28.18         52 
 28.2          65 
 28.22         60 
 28.24         67 
 28.26         59 
 28.28         61 
 28.3          79 
 28.32         64 
 28.34         63 
 28.36         60 
 28.38         71 
 28.4          63 
 28.42         58 
 28.44         64 
 28.46         70 
 28.48         62 
 28.5          65 
 28.52         67 
 28.54         54 
 28.56         63 
 28.58         74 
 28.6          68 
 28.62         93 
 28.64         83 
 28.66         75 
 28.68         90 
 28.7          123 
 28.72         120 
 28.74         96 
 28.76         120 
 28.78         102 
 28.8          112 
 28.82         115 
 28.84         126 
 28.86         138 
 28.88         129 
 28.9          146 
 28.92         114 
 28.94         148 
 28.96         124 
 28.98         131 
 29            88 
 29.02         107 
 29.04         86 
 29.06         89 
 29.08         90 
 29.1          76 
 29.12         84 
 29.14         73 
 29.16         61 
 29.18         65 
 29.2          59 
 29.22         79 
 29.24         78 
 29.26         61 
 29.28         73 
 29.3          57 
 29.32         76 
 29.34         74 
 29.36         79 
 29.38         86 
 29.4          100 
 29.42         97 
 29.44         116 
 29.46         104 
 29.48         111 
 29.5          135 
 29.52         158 
 29.54         232 
 29.56         279 
 29.58         369 
 29.6          522 
 29.62         630 
 29.64         777 
 29.66         887 
 29.68         1059 
 29.7          1015 
 29.72         1054 
 29.74         1029 
 29.76         889 
 29.78         736 
 29.8          623 
 29.82         489 
 29.84         343 
 29.86         270 
 29.88         224 
 29.9          161 
 29.92         128 
 29.94         111 
 29.96         104 
 29.98         100 
 30            88 
 30.02         81 
 30.04         78 
 30.06         70 
 30.08         70 
 30.1          66 
 30.12         78 
 30.14         60 
 30.16         86 
 30.18         61 
 30.2          56 
 30.22         53 
 30.24         56 
 30.26         48 
 30.28         67 
 30.3          59 
 30.32         63 
 30.34         61 
 30.36         46 
 30.38         59 
 30.4          42 
 30.42         50 
 30.44         52 
 30.46         64 
 30.48         63 
 30.5          55 
 30.52         56 
 30.54         68 
 30.56         59 
 30.58         43 
 30.6          63 
 30.62         61 
 30.64         62 
 30.66         61 
 30.68         57 
 30.7          70 
 30.72         54 
 30.74         63 
 30.76         51 
 30.78         59 
 30.8          53 
 30.82         54 
 30.84         59 
 30.86         62 
 30.88         63 
 30.9          61 
 30.92         53 
 30.94         57 
 30.96         67 
 30.98         61 
 31            59 
 31.02         52 
 31.04         58 
 31.06         58 
 31.08         63 
 31.1          51 
 31.12         75 
 31.14         40 
 31.16         45 
 31.18         48 
 31.2          64 
 31.22         61 
 31.24         61 
 31.26         64 
 31.28         50 
 31.3          48 
 31.32         41 
 31.34         54 
 31.36         51 
 31.38         37 
 31.4          43 
 31.42         50 
 31.44         49 
 31.46         39 
 31.48         48 
 31.5          54 
 31.52         59 
 31.54         52 
 31.56         58 
 31.58         48 
 31.6          53 
 31.62         40 
 31.64         45 
 31.66         46 
 31.68         59 
 31.7          54 
 31.72         50 
 31.74         45 
 31.76         66 
 31.78         58 
 31.8          54 
 31.82         56 
 31.84         60 
 31.86         64 
 31.88         56 
 31.9          59 
 31.92         59 
 31.94         66 
 31.96         77 
 31.98         53 
 32            67 
 32.02         66 
 32.04         59 
 32.06         67 
 32.08         54 
 32.1          56 
 32.12         62 
 32.14         78 
 32.16         89 
 32.18         90 
 32.2          77 
 32.22         96 
 32.24         95 
 32.26         113 
 32.28         120 
 32.3          143 
 32.32         174 
 32.34         183 
 32.36         256 
 32.38         298 
 32.4          417 
 32.42         520 
 32.44         568 
 32.46         660 
 32.48         707 
 32.5          653 
 32.52         684 
 32.54         557 
 32.56         521 
 32.58         442 
 32.6          412 
 32.62         312 
 32.64         273 
 32.66         202 
 32.68         141 
 32.7          131 
 32.72         116 
 32.74         86 
 32.76         104 
 32.78         78 
 32.8          92 
 32.82         79 
 32.84         70 
 32.86         73 
 32.88         83 
 32.9          90 
 32.92         100 
 32.94         93 
 32.96         84 
 32.98         104 
 33            104 
 33.02         151 
 33.04         140 
 33.06         182 
 33.08         242 
 33.1          266 
 33.12         328 
 33.14         430 
 33.16         547 
 33.18         618 
 33.2          718 
 33.22         818 
 33.24         832 
 33.26         903 
 33.28         832 
 33.3          793 
 33.32         723 
 33.34         721 
 33.36         544 
 33.38         504 
 33.4          425 
 33.42         332 
 33.44         267 
 33.46         210 
 33.48         169 
 33.5          158 
 33.52         134 
 33.54         90 
 33.56         95 
 33.58         84 
 33.6          79 
 33.62         74 
 33.64         63 
 33.66         62 
 33.68         69 
 33.7          71 
 33.72         57 
 33.74         64 
 33.76         45 
 33.78         51 
 33.8          50 
 33.82         55 
 33.84         48 
 33.86         44 
 33.88         52 
 33.9          39 
 33.92         66 
 33.94         44 
 33.96         57 
 33.98         51 
 34            62 
 34.02         47 
 34.04         52 
 34.06         51 
 34.08         43 
 34.1          51 
 34.12         55 
 34.14         44 
 34.16         43 
 34.18         41 
 34.2          40 
 34.22         43 
 34.24         45 
 34.26         45 
 34.28         44 
 34.3          39 
 34.32         47 
 34.34         33 
 34.36         47 
 34.38         46 
 34.4          52 
 34.42         39 
 34.44         46 
 34.46         41 
 34.48         43 
 34.5          44 
 34.52         52 
 34.54         38 
 34.56         33 
 34.58         47 
 34.6          52 
 34.62         42 
 34.64         37 
 34.66         32 
 34.68         35 
 34.7          38 
 34.72         43 
 34.74         32 
 34.76         43 
 34.78         41 
 34.8          39 
 34.82         49 
 34.84         44 
 34.86         58 
 34.88         51 
 34.9          47 
 34.92         56 
 34.94         32 
 34.96         37 
 34.98         29 
 35            45 
 35.02         37 
 35.04         43 
 35.06         40 
 35.08         56 
 35.1          51 
 35.12         43 
 35.14         61 
 35.16         47 
 35.18         35 
 35.2          59 
 35.22         51 
 35.24         57 
 35.26         63 
 35.28         65 
 35.3          59 
 35.32         73 
 35.34         68 
 35.36         52 
 35.38         42 
 35.4          82 
 35.42         69 
 35.44         79 
 35.46         84 
 35.48         69 
 35.5          72 
 35.52         62 
 35.54         74 
 35.56         78 
 35.58         62 
 35.6          62 
 35.62         53 
 35.64         62 
 35.66         59 
 35.68         48 
 35.7          40 
 35.72         52 
 35.74         44 
 35.76         54 
 35.78         47 
 35.8          35 
 35.82         44 
 35.84         59 
 35.86         43 
 35.88         45 
 35.9          55 
 35.92         34 
 35.94         41 
 35.96         52 
 35.98         51 
 36            37 
 36.02         37 
 36.04         45 
 36.06         48 
 36.08         54 
 36.1          58 
 36.12         38 
 36.14         50 
 36.16         65 
 36.18         44 
 36.2          42 
 36.22         51 
 36.24         57 
 36.26         63 
 36.28         61 
 36.3          68 
 36.32         77 
 36.34         89 
 36.36         102 
 36.38         116 
 36.4          119 
 36.42         154 
 36.44         153 
 36.46         181 
 36.48         243 
 36.5          278 
 36.52         376 
 36.54         426 
 36.56         499 
 36.58         625 
 36.6          671 
 36.62         703 
 36.64         760 
 36.66         714 
 36.68         725 
 36.7          663 
 36.72         607 
 36.74         463 
 36.76         388 
 36.78         357 
 36.8          284 
 36.82         227 
 36.84         173 
 36.86         151 
 36.88         95 
 36.9          99 
 36.92         85 
 36.94         65 
 36.96         62 
 36.98         61 
 37            50 
 37.02         71 
 37.04         50 
 37.06         54 
 37.08         38 
 37.1          52 
 37.12         59 
 37.14         57 
 37.16         44 
 37.18         47 
 37.2          42 
 37.22         51 
 37.24         35 
 37.26         37 
 37.28         47 
 37.3          44 
 37.32         40 
 37.34         43 
 37.36         47 
 37.38         26 
 37.4          45 
 37.42         33 
 37.44         43 
 37.46         43 
 37.48         41 
 37.5          37 
 37.52         32 
 37.54         32 
 37.56         39 
 37.58         41 
 37.6          40 
 37.62         39 
 37.64         49 
 37.66         40 
 37.68         47 
 37.7          34 
 37.72         44 
 37.74         37 
 37.76         38 
 37.78         35 
 37.8          33 
 37.82         38 
 37.84         45 
 37.86         38 
 37.88         39 
 37.9          47 
 37.92         40 
 37.94         31 
 37.96         45 
 37.98         48 
 38            38 
 38.02         40 
 38.04         41 
 38.06         47 
 38.08         41 
 38.1          43 
 38.12         52 
 38.14         30 
 38.16         40 
 38.18         38 
 38.2          40 
 38.22         38 
 38.24         38 
 38.26         43 
 38.28         48 
 38.3          44 
 38.32         43 
 38.34         28 
 38.36         40 
 38.38         35 
 38.4          52 
 38.42         43 
 38.44         44 
 38.46         56 
 38.48         35 
 38.5          61 
 38.52         36 
 38.54         34 
 38.56         40 
 38.58         53 
 38.6          43 
 38.62         43 
 38.64         51 
 38.66         44 
 38.68         42 
 38.7          33 
 38.72         38 
 38.74         41 
 38.76         55 
 38.78         49 
 38.8          48 
 38.82         36 
 38.84         76 
 38.86         55 
 38.88         62 
 38.9          66 
 38.92         67 
 38.94         76 
 38.96         69 
 38.98         69 
 39            70 
 39.02         53 
 39.04         56 
 39.06         52 
 39.08         54 
 39.1          49 
 39.12         32 
 39.14         49 
 39.16         40 
 39.18         39 
 39.2          48 
 39.22         29 
 39.24         32 
 39.26         50 
 39.28         33 
 39.3          38 
 39.32         39 
 39.34         27 
 39.36         25 
 39.38         27 
 39.4          49 
 39.42         42 
 39.44         44 
 39.46         32 
 39.48         43 
 39.5          50 
 39.52         36 
 39.54         40 
 39.56         35 
 39.58         36 
 39.6          40 
 39.62         46 
 39.64         52 
 39.66         38 
 39.68         29 
 39.7          40 
 39.72         36 
 39.74         39 
 39.76         31 
 39.78         29 
 39.8          30 
 39.82         43 
 39.84         47 
 39.86         40 
 39.88         40 
 39.9          34 
 39.92         35 
 39.94         33 
 39.96         43 
 39.98         32 
 40            37 
 40.02         47 
 40.04         29 
 40.06         52 
 40.08         35 
 40.1          41 
 40.12         38 
 40.14         30 
 40.16         37 
 40.18         27 
 40.2          39 
 40.22         28 
 40.24         48 
 40.26         28 
 40.28         36 
 40.3          39 
 40.32         34 
 40.34         40 
 40.36         32 
 40.38         31 
 40.4          40 
 40.42         33 
 40.44         31 
 40.46         33 
 40.48         37 
 40.5          40 
 40.52         37 
 40.54         36 
 40.56         50 
 40.58         38 
 40.6          38 
 40.62         40 
 40.64         39 
 40.66         39 
 40.68         40 
 40.7          33 
 40.72         34 
 40.74         38 
 40.76         34 
 40.78         50 
 40.8          31 
 40.82         35 
 40.84         44 
 40.86         30 
 40.88         35 
 40.9          36 
 40.92         30 
 40.94         33 
 40.96         31 
 40.98         47 
 41            25 
 41.02         35 
 41.04         34 
 41.06         33 
 41.08         40 
 41.1          32 
 41.12         44 
 41.14         35 
 41.16         39 
 41.18         35 
 41.2          29 
 41.22         35 
 41.24         36 
 41.26         36 
 41.28         45 
 41.3          44 
 41.32         39 
 41.34         44 
 41.36         35 
 41.38         29 
 41.4          37 
 41.42         39 
 41.44         34 
 41.46         35 
 41.48         30 
 41.5          45 
 41.52         41 
 41.54         50 
 41.56         26 
 41.58         37 
 41.6          38 
 41.62         27 
 41.64         33 
 41.66         47 
 41.68         42 
 41.7          31 
 41.72         36 
 41.74         42 
 41.76         38 
 41.78         35 
 41.8          32 
 41.82         42 
 41.84         39 
 41.86         41 
 41.88         34 
 41.9          38 
 41.92         50 
 41.94         43 
 41.96         47 
 41.98         37 
 42            40 
 42.02         40 
 42.04         41 
 42.06         38 
 42.08         41 
 42.1          40 
 42.12         37 
 42.14         43 
 42.16         46 
 42.18         46 
 42.2          39 
 42.22         55 
 42.24         56 
 42.26         53 
 42.28         65 
 42.3          59 
 42.32         75 
 42.34         80 
 42.36         84 
 42.38         106 
 42.4          95 
 42.42         93 
 42.44         95 
 42.46         90 
 42.48         101 
 42.5          100 
 42.52         139 
 42.54         89 
 42.56         91 
 42.58         97 
 42.6          95 
 42.62         88 
 42.64         84 
 42.66         90 
 42.68         91 
 42.7          84 
 42.72         82 
 42.74         65 
 42.76         55 
 42.78         53 
 42.8          53 
 42.82         58 
 42.84         48 
 42.86         41 
 42.88         48 
 42.9          58 
 42.92         36 
 42.94         51 
 42.96         55 
 42.98         36 
 43            41 
 43.02         45 
 43.04         33 
 43.06         35 
 43.08         35 
 43.1          36 
 43.12         34 
 43.14         56 
 43.16         33 
 43.18         30 
 43.2          29 
 43.22         50 
 43.24         44 
 43.26         43 
 43.28         35 
 43.3          40 
 43.32         33 
 43.34         33 
 43.36         43 
 43.38         37 
 43.4          47 
 43.42         37 
 43.44         40 
 43.46         34 
 43.48         26 
 43.5          36 
 43.52         36 
 43.54         38 
 43.56         30 
 43.58         47 
 43.6          37 
 43.62         41 
 43.64         47 
 43.66         38 
 43.68         33 
 43.7          50 
 43.72         33 
 43.74         32 
 43.76         46 
 43.78         32 
 43.8          41 
 43.82         43 
 43.84         33 
 43.86         41 
 43.88         45 
 43.9          42 
 43.92         30 
 43.94         33 
 43.96         26 
 43.98         47 
 44            43 
 44.02         37 
 44.04         49 
 44.06         43 
 44.08         55 
 44.1          44 
 44.12         50 
 44.14         57 
 44.16         70 
 44.18         55 
 44.2          78 
 44.22         84 
 44.24         87 
 44.26         91 
 44.28         130 
 44.3          139 
 44.32         187 
 44.34         192 
 44.36         205 
 44.38         225 
 44.4          246 
 44.42         296 
 44.44         289 
 44.46         300 
 44.48         358 
 44.5          362 
 44.52         380 
 44.54         356 
 44.56         367 
 44.58         365 
 44.6          321 
 44.62         328 
 44.64         283 
 44.66         278 
 44.68         275 
 44.7          232 
 44.72         201 
 44.74         185 
 44.76         146 
 44.78         121 
 44.8          109 
 44.82         120 
 44.84         99 
 44.86         69 
 44.88         71 
 44.9          63 
 44.92         74 
 44.94         54 
 44.96         50 
 44.98         60 
 45            52 
 45.02         48 
 45.04         44 
 45.06         60 
 45.08         60 
 45.1          65 
 45.12         47 
 45.14         55 
 45.16         62 
 45.18         74 
 45.2          84 
 45.22         68 
 45.24         62 
 45.26         57 
 45.28         74 
 45.3          85 
 45.32         89 
 45.34         62 
 45.36         76 
 45.38         71 
 45.4          87 
 45.42         74 
 45.44         68 
 45.46         52 
 45.48         44 
 45.5          54 
 45.52         45 
 45.54         57 
 45.56         30 
 45.58         33 
 45.6          32 
 45.62         45 
 45.64         31 
 45.66         34 
 45.68         34 
 45.7          38 
 45.72         40 
 45.74         39 
 45.76         31 
 45.78         37 
 45.8          35 
 45.82         34 
 45.84         36 
 45.86         42 
 45.88         41 
 45.9          38 
 45.92         40 
 45.94         39 
 45.96         26 
 45.98         30 
 46            43 
 46.02         39 
 46.04         39 
 46.06         36 
 46.08         35 
 46.1          35 
 46.12         37 
 46.14         38 
 46.16         30 
 46.18         34 
 46.2          34 
 46.22         38 
 46.24         31 
 46.26         31 
 46.28         39 
 46.3          32 
 46.32         27 
 46.34         40 
 46.36         37 
 46.38         39 
 46.4          35 
 46.42         31 
 46.44         36 
 46.46         36 
 46.48         32 
 46.5          38 
 46.52         40 
 46.54         33 
 46.56         40 
 46.58         35 
 46.6          44 
 46.62         46 
 46.64         28 
 46.66         31 
 46.68         43 
 46.7          43 
 46.72         44 
 46.74         40 
 46.76         34 
 46.78         44 
 46.8          41 
 46.82         52 
 46.84         33 
 46.86         42 
 46.88         46 
 46.9          49 
 46.92         57 
 46.94         54 
 46.96         42 
 46.98         55 
 47            53 
 47.02         42 
 47.04         52 
 47.06         46 
 47.08         51 
 47.1          60 
 47.12         56 
 47.14         35 
 47.16         43 
 47.18         43 
 47.2          46 
 47.22         33 
 47.24         36 
 47.26         44 
 47.28         46 
 47.3          54 
 47.32         52 
 47.34         43 
 47.36         65 
 47.38         41 
 47.4          57 
 47.42         70 
 47.44         65 
 47.46         87 
 47.48         86 
 47.5          90 
 47.52         119 
 47.54         159 
 47.56         165 
 47.58         176 
 47.6          238 
 47.62         255 
 47.64         320 
 47.66         370 
 47.68         407 
 47.7          487 
 47.72         490 
 47.74         532 
 47.76         584 
 47.78         616 
 47.8          629 
 47.82         611 
 47.84         578 
 47.86         584 
 47.88         547 
 47.9          500 
 47.92         460 
 47.94         404 
 47.96         331 
 47.98         287 
 48            281 
 48.02         230 
 48.04         185 
 48.06         158 
 48.08         159 
 48.1          126 
 48.12         118 
 48.14         102 
 48.16         76 
 48.18         83 
 48.2          70 
 48.22         65 
 48.24         64 
 48.26         42 
 48.28         51 
 48.3          46 
 48.32         60 
 48.34         44 
 48.36         56 
 48.38         46 
 48.4          48 
 48.42         45 
 48.44         36 
 48.46         43 
 48.48         34 
 48.5          32 
 48.52         27 
 48.54         49 
 48.56         35 
 48.58         36 
 48.6          44 
 48.62         38 
 48.64         46 
 48.66         38 
 48.68         29 
 48.7          31 
 48.72         33 
 48.74         31 
 48.76         40 
 48.78         42 
 48.8          35 
 48.82         40 
 48.84         29 
 48.86         42 
 48.88         31 
 48.9          37 
 48.92         45 
 48.94         31 
 48.96         35 
 48.98         26 
 49            37 
 49.02         30 
 49.04         39 
 49.06         25 
 49.08         40 
 49.1          42 
 49.12         39 
 49.14         27 
 49.16         44 
 49.18         37 
 49.2          29 
 49.22         46 
 49.24         25 
 49.26         38 
 49.28         31 
 49.3          27 
 49.32         40 
 49.34         37 
 49.36         52 
 49.38         42 
 49.4          53 
 49.42         43 
 49.44         49 
 49.46         54 
 49.48         70 
 49.5          59 
 49.52         61 
 49.54         68 
 49.56         66 
 49.58         82 
 49.6          101 
 49.62         119 
 49.64         123 
 49.66         122 
 49.68         145 
 49.7          158 
 49.72         172 
 49.74         168 
 49.76         179 
 49.78         149 
 49.8          149 
 49.82         144 
 49.84         146 
 49.86         123 
 49.88         109 
 49.9          109 
 49.92         111 
 49.94         106 
 49.96         102 
 49.98         108 
 50            117 
 50.02         101 
 50.04         127 
 50.06         130 
 50.08         151 
 50.1          171 
 50.12         181 
 50.14         219 
 50.16         250 
 50.18         288 
 50.2          318 
 50.22         370 
 50.24         441 
 50.26         428 
 50.28         513 
 50.3          500 
 50.32         557 
 50.34         539 
 50.36         519 
 50.38         555 
 50.4          554 
 50.42         499 
 50.44         481 
 50.46         426 
 50.48         396 
 50.5          351 
 50.52         314 
 50.54         279 
 50.56         193 
 50.58         188 
 50.6          171 
 50.62         137 
 50.64         103 
 50.66         101 
 50.68         105 
 50.7          70 
 50.72         77 
 50.74         63 
 50.76         56 
 50.78         51 
 50.8          46 
 50.82         53 
 50.84         42 
 50.86         42 
 50.88         41 
 50.9          42 
 50.92         33 
 50.94         54 
 50.96         45 
 50.98         29 
 51            43 
 51.02         39 
 51.04         29 
 51.06         35 
 51.08         39 
 51.1          41 
 51.12         32 
 51.14         32 
 51.16         35 
 51.18         26 
 51.2          40 
 51.22         29 
 51.24         32 
 51.26         33 
 51.28         46 
 51.3          28 
 51.32         35 
 51.34         28 
 51.36         30 
 51.38         49 
 51.4          36 
 51.42         34 
 51.44         33 
 51.46         30 
 51.48         29 
 51.5          27 
 51.52         43 
 51.54         34 
 51.56         33 
 51.58         35 
 51.6          34 
 51.62         24 
 51.64         30 
 51.66         33 
 51.68         29 
 51.7          36 
 51.72         36 
 51.74         32 
 51.76         31 
 51.78         34 
 51.8          37 
 51.82         28 
 51.84         32 
 51.86         41 
 51.88         44 
 51.9          31 
 51.92         28 
 51.94         30 
 51.96         30 
 51.98         41 
 52            43 
 52.02         41 
 52.04         33 
 52.06         28 
 52.08         37 
 52.1          44 
 52.12         37 
 52.14         37 
 52.16         29 
 52.18         55 
 52.2          36 
 52.22         41 
 52.24         39 
 52.26         38 
 52.28         38 
 52.3          51 
 52.32         39 
 52.34         63 
 52.36         67 
 52.38         61 
 52.4          75 
 52.42         74 
 52.44         79 
 52.46         86 
 52.48         101 
 52.5          104 
 52.52         88 
 52.54         98 
 52.56         110 
 52.58         93 
 52.6          79 
 52.62         75 
 52.64         86 
 52.66         77 
 52.68         78 
 52.7          88 
 52.72         76 
 52.74         61 
 52.76         44 
 52.78         56 
 52.8          64 
 52.82         59 
 52.84         50 
 52.86         40 
 52.88         43 
 52.9          44 
 52.92         39 
 52.94         33 
 52.96         39 
 52.98         42 
 53            32 
 53.02         35 
 53.04         36 
 53.06         39 
 53.08         34 
 53.1          40 
 53.12         37 
 53.14         29 
 53.16         26 
 53.18         30 
 53.2          39 
 53.22         31 
 53.24         28 
 53.26         32 
 53.28         39 
 53.3          28 
 53.32         37 
 53.34         32 
 53.36         29 
 53.38         34 
 53.4          27 
 53.42         37 
 53.44         34 
 53.46         34 
 53.48         26 
 53.5          30 
 53.52         27 
 53.54         32 
 53.56         29 
 53.58         38 
 53.6          17 
 53.62         23 
 53.64         31 
 53.66         39 
 53.68         21 
 53.7          26 
 53.72         22 
 53.74         30 
 53.76         21 
 53.78         31 
 53.8          33 
 53.82         40 
 53.84         41 
 53.86         31 
 53.88         49 
 53.9          28 
 53.92         43 
 53.94         39 
 53.96         32 
 53.98         39 
 54            35 
 54.02         48 
 54.04         42 
 54.06         46 
 54.08         23 
 54.1          41 
 54.12         42 
 54.14         42 
 54.16         57 
 54.18         57 
 54.2          54 
 54.22         64 
 54.24         71 
 54.26         79 
 54.28         79 
 54.3          107 
 54.32         113 
 54.34         152 
 54.36         164 
 54.38         160 
 54.4          200 
 54.42         212 
 54.44         209 
 54.46         231 
 54.48         221 
 54.5          235 
 54.52         255 
 54.54         191 
 54.56         226 
 54.58         231 
 54.6          223 
 54.62         191 
 54.64         189 
 54.66         202 
 54.68         156 
 54.7          145 
 54.72         163 
 54.74         174 
 54.76         192 
 54.78         199 
 54.8          203 
 54.82         201 
 54.84         216 
 54.86         236 
 54.88         223 
 54.9          285 
 54.92         294 
 54.94         264 
 54.96         272 
 54.98         285 
 55            250 
 55.02         257 
 55.04         260 
 55.06         237 
 55.08         237 
 55.1          195 
 55.12         186 
 55.14         156 
 55.16         159 
 55.18         158 
 55.2          140 
 55.22         116 
 55.24         95 
 55.26         91 
 55.28         74 
 55.3          68 
 55.32         77 
 55.34         64 
 55.36         55 
 55.38         49 
 55.4          52 
 55.42         50 
 55.44         44 
 55.46         58 
 55.48         50 
 55.5          44 
 55.52         39 
 55.54         49 
 55.56         45 
 55.58         41 
 55.6          43 
 55.62         47 
 55.64         36 
 55.66         43 
 55.68         36 
 55.7          46 
 55.72         30 
 55.74         33 
 55.76         38 
 55.78         40 
 55.8          36 
 55.82         34 
 55.84         42 
 55.86         31 
 55.88         40 
 55.9          41 
 55.92         40 
 55.94         42 
 55.96         44 
 55.98         44 
 56            58 
 56.02         43 
 56.04         43 
 56.06         48 
 56.08         36 
 56.1          38 
 56.12         41 
 56.14         36 
 56.16         37 
 56.18         44 
 56.2          42 
 56.22         38 
 56.24         38 
 56.26         39 
 56.28         40 
 56.3          29 
 56.32         35 
 56.34         30 
 56.36         40 
 56.38         37 
 56.4          35 
 56.42         39 
 56.44         32 
 56.46         38 
 56.48         46 
 56.5          32 
 56.52         42 
 56.54         36 
 56.56         43 
 56.58         42 
 56.6          46 
 56.62         38 
 56.64         39 
 56.66         39 
 56.68         42 
 56.7          64 
 56.72         51 
 56.74         45 
 56.76         54 
 56.78         46 
 56.8          66 
 56.82         62 
 56.84         61 
 56.86         67 
 56.88         84 
 56.9          67 
 56.92         108 
 56.94         94 
 56.96         114 
 56.98         112 
 57            114 
 57.02         156 
 57.04         167 
 57.06         175 
 57.08         204 
 57.1          231 
 57.12         280 
 57.14         338 
 57.16         324 
 57.18         361 
 57.2          404 
 57.22         486 
 57.24         499 
 57.26         596 
 57.28         620 
 57.3          642 
 57.32         702 
 57.34         744 
 57.36         806 
 57.38         765 
 57.4          721 
 57.42         675 
 57.44         700 
 57.46         702 
 57.48         627 
 57.5          564 
 57.52         545 
 57.54         459 
 57.56         439 
 57.58         378 
 57.6          343 
 57.62         270 
 57.64         251 
 57.66         195 
 57.68         173 
 57.7          143 
 57.72         116 
 57.74         108 
 57.76         102 
 57.78         85 
 57.8          79 
 57.82         79 
 57.84         72 
 57.86         56 
 57.88         54 
 57.9          49 
 57.92         53 
 57.94         55 
 57.96         40 
 57.98         50 
 58            53 
 58.02         32 
 58.04         35 
 58.06         39 
 58.08         40 
 58.1          41 
 58.12         42 
 58.14         40 
 58.16         46 
 58.18         38 
 58.2          35 
 58.22         42 
 58.24         29 
 58.26         38 
 58.28         52 
 58.3          37 
 58.32         31 
 58.34         33 
 58.36         43 
 58.38         34 
 58.4          36 
 58.42         45 
 58.44         43 
 58.46         35 
 58.48         34 
 58.5          44 
 58.52         40 
 58.54         52 
 58.56         51 
 58.58         47 
 58.6          33 
 58.62         55 
 58.64         71 
 58.66         54 
 58.68         62 
 58.7          67 
 58.72         68 
 58.74         63 
 58.76         81 
 58.78         99 
 58.8          98 
 58.82         132 
 58.84         140 
 58.86         155 
 58.88         170 
 58.9          173 
 58.92         204 
 58.94         234 
 58.96         208 
 58.98         236 
 59            245 
 59.02         243 
 59.04         239 
 59.06         255 
 59.08         268 
 59.1          231 
 59.12         240 
 59.14         199 
 59.16         205 
 59.18         202 
 59.2          188 
 59.22         159 
 59.24         169 
 59.26         142 
 59.28         134 
 59.3          87 
 59.32         74 
 59.34         103 
 59.36         84 
 59.38         77 
 59.4          54 
 59.42         56 
 59.44         48 
 59.46         32 
 59.48         50 
 59.5          47 
 59.52         38 
 59.54         47 
 59.56         31 
 59.58         32 
 59.6          35 
 59.62         39 
 59.64         37 
 59.66         42 
 59.68         39 
 59.7          29 
 59.72         37 
 59.74         40 
 59.76         32 
 59.78         37 
 59.8          23 
 59.82         29 
 59.84         31 
 59.86         30 
 59.88         28 
 59.9          22 
 59.92         36 
 59.94         35 
 59.96         33 
 59.98         31 
 60            41 
 60.02         34 
 60.04         38 
 60.06         35 
 60.08         29 
 60.1          45 
 60.12         33 
 60.14         45 
 60.16         47 
 60.18         33 
 60.2          36 
 60.22         45 
 60.24         33 
 60.26         36 
 60.28         39 
 60.3          39 
 60.32         48 
 60.34         22 
 60.36         27 
 60.38         26 
 60.4          36 
 60.42         39 
 60.44         29 
 60.46         37 
 60.48         33 
 60.5          28 
 60.52         35 
 60.54         30 
 60.56         31 
 60.58         28 
 60.6          34 
 60.62         36 
 60.64         34 
 60.66         31 
 60.68         33 
 60.7          30 
 60.72         37 
 60.74         36 
 60.76         28 
 60.78         31 
 60.8          40 
 60.82         32 
 60.84         34 
 60.86         41 
 60.88         32 
 60.9          24 
 60.92         26 
 60.94         23 
 60.96         35 
 60.98         39 
 61            35 
 61.02         33 
 61.04         32 
 61.06         30 
 61.08         35 
 61.1          25 
 61.12         34 
 61.14         28 
 61.16         24 
 61.18         32 
 61.2          32 
 61.22         38 
 61.24         43 
 61.26         28 
 61.28         27 
 61.3          32 
 61.32         46 
 61.34         37 
 61.36         36 
 61.38         55 
 61.4          41 
 61.42         65 
 61.44         59 
 61.46         71 
 61.48         59 
 61.5          61 
 61.52         93 
 61.54         86 
 61.56         95 
 61.58         113 
 61.6          114 
 61.62         125 
 61.64         119 
 61.66         113 
 61.68         129 
 61.7          115 
 61.72         133 
 61.74         111 
 61.76         112 
 61.78         123 
 61.8          118 
 61.82         105 
 61.84         78 
 61.86         77 
 61.88         75 
 61.9          82 
 61.92         73 
 61.94         70 
 61.96         52 
 61.98         58 
 62            44 
 62.02         45 
 62.04         51 
 62.06         33 
 62.08         30 
 62.1          41 
 62.12         38 
 62.14         33 
 62.16         24 
 62.18         40 
 62.2          36 
 62.22         37 
 62.24         33 
 62.26         27 
 62.28         26 
 62.3          32 
 62.32         31 
 62.34         30 
 62.36         27 
 62.38         25 
 62.4          28 
 62.42         33 
 62.44         31 
 62.46         34 
 62.48         33 
 62.5          27 
 62.52         34 
 62.54         35 
 62.56         36 
 62.58         34 
 62.6          32 
 62.62         24 
 62.64         42 
 62.66         31 
 62.68         26 
 62.7          30 
 62.72         36 
 62.74         33 
 62.76         39 
 62.78         39 
 62.8          28 
 62.82         32 
 62.84         31 
 62.86         40 
 62.88         40 
 62.9          32 
 62.92         45 
 62.94         32 
 62.96         37 
 62.98         51 
 63            46 
 63.02         46 
 63.04         35 
 63.06         58 
 63.08         57 
 63.1          61 
 63.12         60 
 63.14         75 
 63.16         71 
 63.18         83 
 63.2          67 
 63.22         85 
 63.24         89 
 63.26         103 
 63.28         94 
 63.3          103 
 63.32         126 
 63.34         81 
 63.36         108 
 63.38         108 
 63.4          118 
 63.42         132 
 63.44         133 
 63.46         133 
 63.48         163 
 63.5          151 
 63.52         187 
 63.54         176 
 63.56         173 
 63.58         186 
 63.6          255 
 63.62         215 
 63.64         253 
 63.66         268 
 63.68         290 
 63.7          312 
 63.72         314 
 63.74         293 
 63.76         318 
 63.78         331 
 63.8          326 
 63.82         311 
 63.84         305 
 63.86         322 
 63.88         299 
 63.9          280 
 63.92         267 
 63.94         242 
 63.96         236 
 63.98         233 
 64            206 
 64.02         184 
 64.04         173 
 64.06         155 
 64.08         135 
 64.1          125 
 64.12         101 
 64.14         115 
 64.16         106 
 64.18         99 
 64.2          87 
 64.22         71 
 64.24         79 
 64.26         69 
 64.28         58 
 64.3          50 
 64.32         45 
 64.34         47 
 64.36         40 
 64.38         40 
 64.4          39 
 64.42         62 
 64.44         32 
 64.46         46 
 64.48         50 
 64.5          42 
 64.52         39 
 64.54         36 
 64.56         31 
 64.58         39 
 64.6          36 
 64.62         46 
 64.64         38 
 64.66         35 
 64.68         41 
 64.7          48 
 64.72         30 
 64.74         32 
 64.76         35 
 64.78         31 
 64.8          35 
 64.82         40 
 64.84         38 
 64.86         23 
 64.88         34 
 64.9          37 
 64.92         31 
 64.94         30 
 64.96         39 
 64.98         30 
 65            38 
 65.02         31 
 65.04         34 
 65.06         35 
 65.08         30 
 65.1          32 
 65.12         41 
 65.14         44 
 65.16         35 
 65.18         50 
 65.2          38 
 65.22         40 
 65.24         31 
 65.26         49 
 65.28         33 
 65.3          32 
 65.32         33 
 65.34         31 
 65.36         38 
 65.38         40 
 65.4          43 
 65.42         54 
 65.44         41 
 65.46         36 
 65.48         39 
 65.5          33 
 65.52         46 
 65.54         46 
 65.56         56 
 65.58         61 
 65.6          62 
 65.62         60 
 65.64         80 
 65.66         72 
 65.68         77 
 65.7          81 
 65.72         82 
 65.74         92 
 65.76         109 
 65.78         124 
 65.8          133 
 65.82         159 
 65.84         128 
 65.86         158 
 65.88         174 
 65.9          216 
 65.92         190 
 65.94         193 
 65.96         189 
 65.98         202 
 66            174 
 66.02         197 
 66.04         179 
 66.06         185 
 66.08         165 
 66.1          188 
 66.12         145 
 66.14         116 
 66.16         129 
 66.18         111 
 66.2          105 
 66.22         103 
 66.24         91 
 66.26         91 
 66.28         63 
 66.3          83 
 66.32         62 
 66.34         53 
 66.36         41 
 66.38         44 
 66.4          48 
 66.42         45 
 66.44         45 
 66.46         33 
 66.48         31 
 66.5          33 
 66.52         48 
 66.54         31 
 66.56         45 
 66.58         36 
 66.6          34 
 66.62         44 
 66.64         28 
 66.66         29 
 66.68         31 
 66.7          29 
 66.72         31 
 66.74         33 
 66.76         38 
 66.78         30 
 66.8          34 
 66.82         40 
 66.84         40 
 66.86         26 
 66.88         42 
 66.9          37 
 66.92         50 
 66.94         39 
 66.96         45 
 66.98         29 
 67            39 
 67.02         51 
 67.04         41 
 67.06         42 
 67.08         54 
 67.1          66 
 67.12         71 
 67.14         72 
 67.16         68 
 67.18         79 
 67.2          69 
 67.22         80 
 67.24         84 
 67.26         103 
 67.28         105 
 67.3          114 
 67.32         118 
 67.34         97 
 67.36         116 
 67.38         105 
 67.4          133 
 67.42         136 
 67.44         114 
 67.46         138 
 67.48         139 
 67.5          149 
 67.52         153 
 67.54         141 
 67.56         135 
 67.58         124 
 67.6          137 
 67.62         150 
 67.64         154 
 67.66         162 
 67.68         161 
 67.7          164 
 67.72         186 
 67.74         155 
 67.76         167 
 67.78         171 
 67.8          175 
 67.82         164 
 67.84         158 
 67.86         148 
 67.88         184 
 67.9          145 
 67.92         166 
 67.94         141 
 67.96         124 
 67.98         142 
 68            117 
 68.02         116 
 68.04         115 
 68.06         109 
 68.08         91 
 68.1          91 
 68.12         91 
 68.14         61 
 68.16         87 
 68.18         77 
 68.2          77 
 68.22         64 
 68.24         55 
 68.26         70 
 68.28         51 
 68.3          56 
 68.32         42 
 68.34         43 
 68.36         46 
 68.38         30 
 68.4          43 
 68.42         38 
 68.44         44 
 68.46         30 
 68.48         39 
 68.5          34 
 68.52         26 
 68.54         40 
 68.56         30 
 68.58         32 
 68.6          33 
 68.62         51 
 68.64         34 
 68.66         34 
 68.68         22 
 68.7          29 
 68.72         23 
 68.74         33 
 68.76         38 
 68.78         36 
 68.8          21 
 68.82         26 
 68.84         26 
 68.86         30 
 68.88         41 
 68.9          19 
 68.92         34 
 68.94         29 
 68.96         23 
 68.98         32 
 69            42 
 69.02         34 
 69.04         23 
 69.06         33 
 69.08         35 
 69.1          32 
 69.12         28 
 69.14         29 
 69.16         38 
 69.18         30 
 69.2          41 
 69.22         37 
 69.24         27 
 69.26         37 
 69.28         37 
 69.3          31 
 69.32         37 
 69.34         31 
 69.36         36 
 69.38         32 
 69.4          42 
 69.42         33 
 69.44         30 
 69.46         42 
 69.48         31 
 69.5          41 
 69.52         47 
 69.54         52 
 69.56         49 
 69.58         57 
 69.6          63 
 69.62         65 
 69.64         48 
 69.66         64 
 69.68         87 
 69.7          69 
 69.72         82 
 69.74         80 
 69.76         92 
 69.78         93 
 69.8          88 
 69.82         119 
 69.84         104 
 69.86         144 
 69.88         123 
 69.9          115 
 69.92         142 
 69.94         132 
 69.96         147 
 69.98         147 
 70            128 
 70.02         131 
 70.04         131 
 70.06         128 
 70.08         135 
 70.1          119 
 70.12         111 
 70.14         101 
 70.16         104 
 70.18         105 
 70.2          85 
 70.22         97 
 70.24         91 
 70.26         85 
 70.28         65 
 70.3          72 
 70.32         65 
 70.34         59 
 70.36         60 
 70.38         46 
 70.4          51 
 70.42         39 
 70.44         45 
 70.46         42 
 70.48         47 
 70.5          36 
 70.52         39 
 70.54         41 
 70.56         29 
 70.58         37 
 70.6          42 
 70.62         35 
 70.64         42 
 70.66         40 
 70.68         46 
 70.7          49 
 70.72         41 
 70.74         48 
 70.76         45 
 70.78         48 
 70.8          51 
 70.82         61 
 70.84         53 
 70.86         40 
 70.88         54 
 70.9          69 
 70.92         80 
 70.94         80 
 70.96         66 
 70.98         99 
 71            96 
 71.02         106 
 71.04         129 
 71.06         114 
 71.08         118 
 71.1          128 
 71.12         133 
 71.14         134 
 71.16         151 
 71.18         145 
 71.2          144 
 71.22         173 
 71.24         167 
 71.26         186 
 71.28         180 
 71.3          174 
 71.32         199 
 71.34         196 
 71.36         189 
 71.38         206 
 71.4          215 
 71.42         231 
 71.44         220 
 71.46         220 
 71.48         259 
 71.5          251 
 71.52         266 
 71.54         238 
 71.56         199 
 71.58         266 
 71.6          224 
 71.62         214 
 71.64         201 
 71.66         222 
 71.68         181 
 71.7          218 
 71.72         205 
 71.74         217 
 71.76         183 
 71.78         196 
 71.8          166 
 71.82         162 
 71.84         145 
 71.86         150 
 71.88         161 
 71.9          144 
 71.92         149 
 71.94         125 
 71.96         127 
 71.98         119 
 72            113 
 72.02         106 
 72.04         101 
 72.06         101 
 72.08         66 
 72.1          88 
 72.12         69 
 72.14         79 
 72.16         68 
 72.18         64 
 72.2          60 
 72.22         39 
 72.24         55 
 72.26         49 
 72.28         71 
 72.3          57 
 72.32         54 
 72.34         46 
 72.36         39 
 72.38         34 
 72.4          44 
 72.42         34 
 72.44         49 
 72.46         27 
 72.48         39 
 72.5          35 
 72.52         25 
 72.54         38 
 72.56         37 
 72.58         26 
 72.6          31 
 72.62         36 
 72.64         32 
 72.66         37 
 72.68         31 
 72.7          25 
 72.72         27 
 72.74         29 
 72.76         32 
 72.78         38 
 72.8          32 
 72.82         35 
 72.84         30 
 72.86         37 
 72.88         26 
 72.9          30 
 72.92         34 
 72.94         23 
 72.96         36 
 72.98         35 
 73            32 
 73.02         30 
 73.04         27 
 73.06         38 
 73.08         33 
 73.1          38 
 73.12         25 
 73.14         29 
 73.16         33 
 73.18         36 
 73.2          26 
 73.22         38 
 73.24         33 
 73.26         41 
 73.28         26 
 73.3          29 
 73.32         30 
 73.34         26 
 73.36         41 
 73.38         41 
 73.4          31 
 73.42         38 
 73.44         41 
 73.46         42 
 73.48         49 
 73.5          39 
 73.52         38 
 73.54         39 
 73.56         55 
 73.58         45 
 73.6          59 
 73.62         56 
 73.64         47 
 73.66         74 
 73.68         66 
 73.7          78 
 73.72         70 
 73.74         100 
 73.76         94 
 73.78         96 
 73.8          110 
 73.82         119 
 73.84         131 
 73.86         165 
 73.88         138 
 73.9          158 
 73.92         156 
 73.93999      169 
 73.96         166 
 73.98         162 
 74            172 
 74.02         189 
 74.04         188 
 74.06         189 
 74.08         181 
 74.1          147 
 74.12         136 
 74.14         148 
 74.16         158 
 74.18         139 
 74.2          126 
 74.22         162 
 74.24         124 
 74.26         114 
 74.28         88 
 74.3          108 
 74.32         75 
 74.34         83 
 74.36         67 
 74.38         95 
 74.4          61 
 74.42         60 
 74.43999      67 
 74.46         53 
 74.48         37 
 74.5          52 
 74.52         37 
 74.54         46 
 74.56         45 
 74.58         39 
 74.6          39 
 74.62         34 
 74.64         32 
 74.66         27 
 74.68         39 
 74.7          28 
 74.72         42 
 74.74         38 
 74.76         34 
 74.78         36 
 74.8          36 
 74.82         38 
 74.84         40 
 74.86         33 
 74.88         43 
 74.9          48 
 74.92         37 
 74.93999      47 
 74.96         44 
 74.98         52 
 75            46 
