EC-Lab ASCII FILE
Nb header lines : 46                          

Open Circuit Voltage

Run on channel : 1 (SN 6985)
Grouped channel(s) : 1
User : 
CE vs. WE compliance from -10 V to 10 V
Electrode connection : standard
Ewe ctrl range : min = 0,00 V, max = 5,00 V
Acquisition started on : 04.22.2015 16:16:38
Saved on :
	File : LLTO_LP30_Li_02_OCV_C01.mpr
	Directory : C:\Hupfer\Studenten Batterietests\LLTO_LP30_Li\
	Host : 192.168.0.2
Device : VMP3 (SN 0324)
Address : 192.168.0.1
EC-Lab for windows v10.33 (software)
Internet server v10.33 (firmware)
Command interpretor v10.32 (firmware)
Electrode material : 
Initial state : 
Electrolyte : 
Comments : 
Mass of active material : 0,001 mg
 at x = 0,000
Molecular weight of active material (at x = 0) : 0,001 g/mol
Atomic weight of intercalated ion : 0,001 g/mol
Acquisition started at : xo = 0,000
Number of e- transfered per intercalated ion : 1
for DX = 1, DQ = 26,801 mA.h
Battery capacity : 0,000 A.h
Electrode surface area : 0,001 cm²
Characteristic mass : 0,001 g
tR (h:m:s)          0:15:0,0000         
dER/dt (mV/h)       1,0                 
dER (mV)            1,00                
dtR (s)             0,5000              
E range min (V)     0,000               
E range max (V)     5,000               

Number of loops : 1
Loop 0 from point number 0 to 1808

mode	error	time/s	Ewe/V
3	0	679,6796	3,79904604
3	0	680,1796	3,79845405
3	0	680,6796	3,79776669
3	0	681,1796	3,79702187
3	0	681,6796	3,79646802
3	0	682,1796	3,79579973
3	0	682,6796	3,79545617
3	0	683,1796	3,79480696
3	0	683,6796	3,79415774
3	0	684,1796	3,79371834
3	0	684,6796	3,7932601
3	0	685,1796	3,79266834
3	0	685,6796	3,79236269
3	0	686,1796	3,79182816
3	0	686,6796	3,79136968
3	0	687,1796	3,79075885
3	0	687,6796	3,79026222
3	0	688,1796	3,78974676
3	0	688,6796	3,78944111
3	0	689,1796	3,78883004
3	0	689,6796	3,78846741
3	0	690,1796	3,78799009
3	0	690,6796	3,7873981
3	0	691,1796	3,78716898
3	0	691,6796	3,78663421
3	0	692,1796	3,78615689
3	0	692,6796	3,78560305
3	0	693,1796	3,78527856
3	0	693,6796	3,78482032
3	0	694,1796	3,78449559
3	0	694,6796	3,7840755
3	0	695,1796	3,78346443
3	0	695,6796	3,78300619
3	0	696,1796	3,78247166
3	0	696,6796	3,78218508
3	0	697,1796	3,78165054
3	0	697,6796	3,78128767
3	0	698,1796	3,78090572
3	0	698,6796	3,78042841
3	0	699,1796	3,77998924
3	0	699,6796	3,77966452
3	0	700,1796	3,77914906
3	0	700,6796	3,77872896
3	0	701,1796	3,77844262
3	0	701,6796	3,77800345
3	0	702,1796	3,77765965
3	0	702,6796	3,77716327
3	0	703,1796	3,77680039
3	0	703,6796	3,77651405
3	0	704,1796	3,77607465
3	0	704,6796	3,77575016
3	0	705,1796	3,77534914
3	0	705,6796	3,77492905
3	0	706,1796	3,77462363
3	0	706,6796	3,77422261
3	0	707,1796	3,77376437
3	0	707,6796	3,77349687
3	0	708,1796	3,77303863
3	0	708,6796	3,77265668
3	0	709,1796	3,77237034
3	0	709,6796	3,77198839
3	0	710,1796	3,77158737
3	0	710,6796	3,77122474
3	0	711,1796	3,77078557
3	0	711,6796	3,77044177
3	0	712,1796	3,77013636
3	0	712,6796	3,76984978
3	0	713,1796	3,76941061
3	0	713,6796	3,76906681
3	0	714,1796	3,76878047
3	0	714,6796	3,7684176
3	0	715,1796	3,76807404
3	0	715,6796	3,7676158
3	0	716,1796	3,767272
3	0	716,6796	3,7670238
3	0	717,1796	3,76656556
3	0	717,6796	3,76627898
3	0	718,1796	3,76589727
3	0	718,6796	3,76545811
3	0	719,1796	3,76520967
3	0	719,6796	3,76480865
3	0	720,1796	3,76444602
3	0	720,6796	3,76408315
3	0	721,1796	3,76381588
3	0	721,6796	3,76333857
3	0	722,1796	3,76303291
3	0	722,6796	3,76267004
3	0	723,1796	3,76232648
3	0	723,6796	3,76211643
3	0	724,1796	3,76160073
3	0	724,6796	3,76137161
3	0	725,1796	3,76100898
3	0	725,6796	3,76068425
3	0	726,1796	3,76035976
3	0	726,6796	3,75993967
3	0	727,1796	3,75972962
3	0	727,6796	3,7594049
3	0	728,1796	3,75911856
3	0	728,6796	3,75873661
3	0	729,1796	3,75845027
3	0	729,6796	3,7580874
3	0	730,1796	3,75778174
3	0	730,6796	3,75738096
3	0	731,1796	3,75713253
3	0	731,6796	3,75688434
3	0	732,1796	3,75648332
3	0	732,6796	3,75615883
3	0	733,1796	3,75577688
3	0	733,6796	3,75560498
3	0	734,1796	3,75535679
3	0	734,6796	3,75505137
3	0	735,1796	3,75478387
3	0	735,6796	3,75442123
3	0	736,1796	3,75413465
3	0	736,6796	3,75384831
3	0	737,1796	3,75352359
3	0	737,6796	3,7531991
3	0	738,1796	3,75289345
3	0	738,6796	3,75260711
3	0	739,1796	3,75220609
3	0	739,6796	3,75203419
3	0	740,1796	3,75165248
3	0	740,6796	3,7513659
3	0	741,1796	3,75109863
3	0	741,6796	3,75077391
3	0	742,1796	3,75048757
3	0	742,6796	3,7500484
3	0	743,1796	3,74983835
3	0	743,6796	3,74959016
3	0	744,1796	3,74932289
3	0	744,6796	3,74899817
3	0	745,1796	3,74865437
3	0	745,6796	3,74850178
3	0	746,1796	3,7481389
3	0	746,6796	3,74781418
3	0	747,1796	3,74745154
3	0	747,6796	3,74710774
3	0	748,1796	3,74685955
3	0	748,6796	3,74666858
3	0	749,1796	3,74632478
3	0	749,6796	3,74603844
3	0	750,1796	3,7457521
3	0	750,6796	3,745332
3	0	751,1796	3,74510288
3	0	751,6796	3,74485469
3	0	752,1796	3,74447274
3	0	752,6796	3,74439621
3	0	753,1796	3,74403358
3	0	753,6796	3,74380445
3	0	754,1796	3,74342251
3	0	754,6796	3,74325061
3	0	755,1796	3,74296427
3	0	755,6796	3,74265862
3	0	756,1796	3,74242949
3	0	756,6796	3,74214315
3	0	757,1796	3,74191403
3	0	757,6796	3,74153209
3	0	758,1796	3,74116921
3	0	758,6796	3,74092102
3	0	759,1796	3,74061561
3	0	759,6796	3,74032903
3	0	760,1796	3,73994708
3	0	760,6796	3,73975635
3	0	761,1796	3,73941255
3	0	761,6796	3,73922157
3	0	762,1796	3,73891616
3	0	762,6796	3,73866773
3	0	763,1796	3,73838139
3	0	763,6796	3,73811412
3	0	764,1796	3,737885
3	0	764,6796	3,73757935
3	0	765,1796	3,73733115
3	0	765,6796	3,73704481
3	0	766,1796	3,73683476
3	0	766,6796	3,73654819
3	0	767,1796	3,73631907
3	0	767,6796	3,73589897
3	0	768,1796	3,73572731
3	0	768,6796	3,73547888
3	0	769,1796	3,7350781
3	0	769,6796	3,73494434
3	0	770,1796	3,734658
3	0	770,6796	3,73435235
3	0	771,1796	3,73408508
3	0	771,6796	3,73372221
3	0	772,1796	3,73339772
3	0	772,6796	3,73322582
3	0	773,1796	3,73305392
3	0	773,6796	3,7326529
3	0	774,1796	3,73242378
3	0	774,6796	3,73206091
3	0	775,1796	3,73188925
3	0	775,6796	3,73154545
3	0	776,1796	3,73137355
3	0	776,6796	3,73106813
3	0	777,1796	3,73074341
3	0	777,6796	3,73066711
3	0	778,1796	3,73032331
3	0	778,6796	3,73007512
3	0	779,1796	3,72988415
3	0	779,6796	3,72955966
3	0	780,1796	3,72934961
3	0	780,6796	3,72904396
3	0	781,1796	3,72875762
3	0	781,6796	3,72843289
3	0	782,1796	3,72824192
3	0	782,6796	3,72787929
3	0	783,1796	3,72770739
3	0	783,6796	3,72751641
3	0	784,1796	3,72715354
3	0	784,6796	3,7268672
3	0	785,1796	3,7266953
3	0	785,6796	3,72633243
3	0	786,1796	3,72610331
3	0	786,6796	3,72577882
3	0	787,1796	3,72541595
3	0	787,6796	3,7253015
3	0	788,1796	3,72501493
3	0	788,6796	3,72476673
3	0	789,1796	3,72434664
3	0	789,6796	3,72407937
3	0	790,1796	3,7238884
3	0	790,6796	3,72369742
3	0	791,1796	3,72331548
3	0	791,6796	3,72310543
3	0	792,1796	3,72287631
3	0	792,6796	3,72251344
3	0	793,1796	3,72228432
3	0	793,6796	3,72209334
3	0	794,1796	3,72174978
3	0	794,6796	3,72155881
3	0	795,1796	3,72123408
3	0	795,6796	3,72102404
3	0	796,1796	3,72071862
3	0	796,6796	3,72062325
3	0	797,1796	3,72005033
3	0	797,6796	3,71991658
3	0	798,1796	3,71963024
3	0	798,6796	3,71930552
3	0	799,1796	3,71924829
3	0	799,6796	3,7188282
3	0	800,1796	3,71854186
3	0	800,6796	3,71842718
3	0	801,1796	3,71806455
3	0	801,6796	3,71783519
3	0	802,1796	3,71754885
3	0	802,6796	3,71737695
3	0	803,1796	3,71701431
3	0	803,6796	3,71686149
3	0	804,1796	3,71651769
3	0	804,6796	3,7163651
3	0	805,1796	3,71609759
3	0	805,6796	3,71571565
3	0	806,1796	3,71560121
3	0	806,6796	3,71525741
3	0	807,1796	3,71500921
3	0	807,6796	3,71489477
3	0	808,1796	3,71457005
3	0	808,6796	3,7141881
3	0	809,1796	3,7141118
3	0	809,6796	3,71378708
3	0	810,1796	3,71357703
3	0	810,6796	3,71330976
3	0	811,1796	3,71308064
3	0	811,6796	3,71275616
3	0	812,1796	3,71254611
3	0	812,6796	3,71214509
3	0	813,1796	3,71178222
3	0	813,6796	3,711725
3	0	814,1796	3,7114768
3	0	814,6796	3,711133
3	0	815,1796	3,71094203
3	0	815,6796	3,71071291
3	0	816,1796	3,71040726
3	0	816,6796	3,71012092
3	0	817,1796	3,70992994
3	0	817,6796	3,70973897
3	0	818,1796	3,70943356
3	0	818,6796	3,70922351
3	0	819,1796	3,70889878
3	0	819,6796	3,70859337
3	0	820,1796	3,70861244
3	0	820,6796	3,70828795
3	0	821,1796	3,70803952
3	0	821,6796	3,70771503
3	0	822,1796	3,70754313
3	0	822,6796	3,70725679
3	0	823,1796	3,70695114
3	0	823,6796	3,70676017
3	0	824,1796	3,70655012
3	0	824,6796	3,70620656
3	0	825,1796	3,70601559
3	0	825,6796	3,70582461
3	0	826,1796	3,70557642
3	0	826,6796	3,70530891
3	0	827,1796	3,70496535
3	0	827,6796	3,70464063
3	0	828,1796	3,70423961
3	0	828,6796	3,70399141
3	0	829,1796	3,703686
3	0	829,6796	3,70330405
3	0	830,1796	3,70322776
3	0	830,6796	3,70269299
3	0	831,1796	3,70246387
3	0	831,6796	3,7021966
3	0	832,1796	3,70198655
3	0	832,6796	3,7016809
3	0	833,1796	3,70149016
3	0	833,6796	3,70131826
3	0	834,1796	3,70093632
3	0	834,6796	3,70068812
3	0	835,1796	3,70042062
3	0	835,6796	3,70024896
3	0	836,1796	3,70005798
3	0	836,6796	3,69979072
3	0	837,1796	3,69954228
3	0	837,6796	3,69925594
3	0	838,1796	3,69917965
3	0	838,6796	3,69885492
3	0	839,1796	3,6986258
3	0	839,6796	3,69835854
3	0	840,1796	3,69822478
3	0	840,6796	3,69788122
3	0	841,1796	3,69763279
3	0	841,6796	3,69744182
3	0	842,1796	3,69734645
3	0	842,6796	3,69711733
3	0	843,1796	3,69675446
3	0	843,6796	3,69656348
3	0	844,1796	3,69621992
3	0	844,6796	3,69608617
3	0	845,1796	3,6958952
3	0	845,6796	3,69555163
3	0	846,1796	3,69528413
3	0	846,6796	3,69516969
3	0	847,1796	3,69486403
3	0	847,6796	3,69476867
3	0	848,1796	3,69457769
3	0	848,6796	3,6941576
3	0	849,1796	3,69408131
3	0	849,6796	3,69387126
3	0	850,1796	3,69366121
3	0	850,6796	3,69335556
3	0	851,1796	3,69303107
3	0	851,6796	3,69297361
3	0	852,1796	3,69270635
3	0	852,6796	3,69243908
3	0	853,1796	3,69213367
3	0	853,6796	3,69190431
3	0	854,1796	3,69192362
3	0	854,6796	3,69154167
3	0	855,1796	3,69140792
3	0	855,6796	3,6911025
3	0	856,1796	3,69087338
3	0	856,6796	3,69058681
3	0	857,1796	3,69041491
3	0	857,6796	3,69012856
3	0	858,1796	3,69014764
3	0	858,6796	3,68988037
3	0	859,1796	3,68955564
3	0	859,6796	3,68928838
3	0	860,1796	3,68915462
3	0	860,6796	3,68894482
3	0	861,1796	3,68875384
3	0	861,6796	3,68841004
3	0	862,1796	3,68821907
3	0	862,6796	3,68793273
3	0	863,1796	3,68758893
3	0	863,6796	3,68753171
3	0	864,1796	3,68732166
3	0	864,6796	3,68707347
3	0	865,1796	3,68695879
3	0	865,6796	3,68659592
3	0	866,1796	3,68642426
3	0	866,6796	3,68621421
3	0	867,1796	3,68598509
3	0	867,6796	3,68585134
3	0	868,1796	3,68558407
3	0	868,6796	3,68533587
3	0	869,1796	3,68510652
3	0	869,6796	3,68483925
3	0	870,1796	3,68461013
3	0	870,6796	3,68451476
3	0	871,1796	3,68430471
3	0	871,6796	3,68397999
3	0	872,1796	3,68371272
3	0	872,6796	3,68338799
3	0	873,1796	3,68317795
3	0	873,6796	3,68291068
3	0	874,1796	3,68268156
3	0	874,6796	3,68247151
3	0	875,1796	3,68222332
3	0	875,6796	3,68218517
3	0	876,1796	3,68184137
3	0	876,6796	3,68149757
3	0	877,1796	3,68138313
3	0	877,6796	3,68119216
3	0	878,1796	3,68103933
3	0	878,6796	3,68075299
3	0	879,1796	3,68048573
3	0	879,6796	3,68029475
3	0	880,1796	3,68012285
3	0	880,6796	3,67991281
3	0	881,1796	3,67970276
3	0	881,6796	3,67958808
3	0	882,1796	3,67928267
3	0	882,6796	3,67893887
3	0	883,1796	3,67874813
3	0	883,6796	3,67870975
3	0	884,1796	3,6784234
3	0	884,6796	3,67819428
3	0	885,1796	3,67802238
3	0	885,6796	3,67786956
3	0	886,1796	3,67750692
3	0	886,6796	3,6773541
3	0	887,1796	3,67712498
3	0	887,6796	3,67687678
3	0	888,1796	3,67672396
3	0	888,6796	3,67649484
3	0	889,1796	3,67624664
3	0	889,6796	3,67605567
3	0	890,1796	3,67588377
3	0	890,6796	3,6756165
3	0	891,1796	3,67548275
3	0	891,6796	3,67517734
3	0	892,1796	3,67506266
3	0	892,6796	3,67485261
3	0	893,1796	3,67464256
3	0	893,6796	3,67447066
3	0	894,1796	3,67426062
3	0	894,6796	3,67391706
3	0	895,1796	3,67368793
3	0	895,6796	3,67351604
3	0	896,1796	3,67334414
3	0	896,6796	3,67317224
3	0	897,1796	3,67307687
3	0	897,6796	3,6728096
3	0	898,1796	3,67250395
3	0	898,6796	3,67238951
3	0	899,1796	3,672122
3	0	899,6796	3,67177844
3	0	900,1796	3,67162561
3	0	900,6796	3,67137742
3	0	901,1796	3,67122459
3	0	901,6796	3,67093825
3	0	902,1796	3,67078543
3	0	902,6796	3,67044163
3	0	903,1796	3,67025089
3	0	903,6796	3,67015529
3	0	904,1796	3,67002153
3	0	904,6796	3,66979241
3	0	905,1796	3,669487
3	0	905,6796	3,66929603
3	0	906,1796	3,6691432
3	0	906,6796	3,66889501
3	0	907,1796	3,66872311
3	0	907,6796	3,66853213
3	0	908,1796	3,66820765
3	0	908,6796	3,66805482
3	0	909,1796	3,66786385
3	0	909,6796	3,66769218
3	0	910,1796	3,66738653
3	0	910,6796	3,66725278
3	0	911,1796	3,66696644
3	0	911,6796	3,66681361
3	0	912,1796	3,66662264
3	0	912,6796	3,66629815
3	0	913,1796	3,66610718
3	0	913,6796	3,66601181
3	0	914,1796	3,66572523
3	0	914,6796	3,66545796
3	0	915,1796	3,66522884
3	0	915,6796	3,66499972
3	0	916,1796	3,66482782
3	0	916,6796	3,66461778
3	0	917,1796	3,66433144
3	0	917,6796	3,66415954
3	0	918,1796	3,66389227
3	0	918,6796	3,66385388
3	0	919,1796	3,66377759
3	0	919,6796	3,66358662
3	0	920,1796	3,66339564
3	0	920,6796	3,6631856
3	0	921,1796	3,66295648
3	0	921,6796	3,66261292
3	0	922,1796	3,66232634
3	0	922,6796	3,66221189
3	0	923,1796	3,66188717
3	0	923,6796	3,66165805
3	0	924,1796	3,66154361
3	0	924,6796	3,66112351
3	0	925,1796	3,66097069
3	0	925,6796	3,66068435
3	0	926,1796	3,66068435
3	0	926,6796	3,6604743
3	0	927,1796	3,66018772
3	0	927,6796	3,65982485
3	0	928,1796	3,65972948
3	0	928,6796	3,65953851
3	0	929,1796	3,65925217
3	0	929,6796	3,65917563
3	0	930,1796	3,6589849
3	0	930,6796	3,65877485
3	0	931,1796	3,65852642
3	0	931,6796	3,6582973
3	0	932,1796	3,65797281
3	0	932,6796	3,65787721
3	0	933,1796	3,65766716
3	0	933,6796	3,65743804
3	0	934,1796	3,65728545
3	0	934,6796	3,65703702
3	0	935,1796	3,6568079
3	0	935,6796	3,65671253
3	0	936,1796	3,65640688
3	0	936,6796	3,65625429
3	0	937,1796	3,65604424
3	0	937,6796	3,65573859
3	0	938,1796	3,65552855
3	0	938,6796	3,65528035
3	0	939,1796	3,6551466
3	0	939,6796	3,65489841
3	0	940,1796	3,65466928
3	0	940,6796	3,65445924
3	0	941,1796	3,65424919
3	0	941,6796	3,65405822
3	0	942,1796	3,6539247
3	0	942,6796	3,6536572
3	0	943,1796	3,653409
3	0	943,6796	3,65317988
3	0	944,1796	3,6530273
3	0	944,6796	3,6528554
3	0	945,1796	3,6526835
3	0	945,6796	3,65245438
3	0	946,1796	3,6520915
3	0	946,6796	3,65195775
3	0	947,1796	3,6517477
3	0	947,6796	3,65155697
3	0	948,1796	3,65138507
3	0	948,6796	3,6510222
3	0	949,1796	3,65092683
3	0	949,6796	3,65058303
3	0	950,1796	3,65050673
3	0	950,6796	3,65039206
3	0	951,1796	3,65014386
3	0	951,6796	3,64991474
3	0	952,1796	3,64966655
3	0	952,6796	3,64966655
3	0	953,1796	3,64926553
3	0	953,6796	3,64920831
3	0	954,1796	3,6489408
3	0	954,6796	3,64880729
3	0	955,1796	3,64850163
3	0	955,6796	3,64829159
3	0	956,1796	3,64800525
3	0	956,6796	3,64792895
3	0	957,1796	3,64756608
3	0	957,6796	3,64741325
3	0	958,1796	3,64712691
3	0	958,6796	3,64703131
3	0	959,1796	3,64680219
3	0	959,6796	3,64668775
3	0	960,1796	3,64645863
3	0	960,6796	3,64634395
3	0	961,1796	3,64611483
3	0	961,6796	3,64584756
3	0	962,1796	3,64569473
3	0	962,6796	3,64548469
3	0	963,1796	3,64531279
3	0	963,6796	3,64521742
3	0	964,1796	3,64485455
3	0	964,6796	3,64470172
3	0	965,1796	3,64453006
3	0	965,6796	3,64424348
3	0	966,1796	3,64407158
3	0	966,6796	3,64391899
3	0	967,1796	3,64378524
3	0	967,6796	3,64351797
3	0	968,1796	3,64326978
3	0	968,6796	3,6431551
3	0	969,1796	3,64296412
3	0	969,6796	3,64271593
3	0	970,1796	3,64263964
3	0	970,6796	3,64242959
3	0	971,1796	3,64218116
3	0	971,6796	3,6420095
3	0	972,1796	3,64179945
3	0	972,6796	3,6415894
3	0	973,1796	3,64130282
3	0	973,6796	3,64118838
3	0	974,1796	3,64101648
3	0	974,6796	3,64082551
3	0	975,1796	3,64044356
3	0	975,6796	3,64025259
3	0	976,1796	3,64006186
3	0	976,6796	3,63985181
3	0	977,1796	3,63956523
3	0	977,6796	3,63964176
3	0	978,1796	3,63927889
3	0	978,6796	3,63910699
3	0	979,1796	3,63889694
3	0	979,6796	3,63857222
3	0	980,1796	3,63840055
3	0	980,6796	3,63813305
3	0	981,1796	3,63784671
3	0	981,6796	3,63765574
3	0	982,1796	3,63742661
3	0	982,6796	3,63708282
3	0	983,1796	3,63681555
3	0	983,6796	3,63683462
3	0	984,1796	3,63651013
3	0	984,6796	3,63641453
3	0	985,1796	3,63612819
3	0	985,6796	3,63603282
3	0	986,1796	3,63586092
3	0	986,6796	3,63559341
3	0	987,1796	3,6354599
3	0	987,6796	3,6351161
3	0	988,1796	3,63507795
3	0	988,6796	3,63500166
3	0	989,1796	3,63471508
3	0	989,6796	3,63437152
3	0	990,1796	3,63419962
3	0	990,6796	3,63402772
3	0	991,1796	3,63391328
3	0	991,6796	3,63356948
3	0	992,1796	3,6334548
3	0	992,6796	3,63322568
3	0	993,1796	3,63290119
3	0	993,6796	3,63269114
3	0	994,1796	3,63242388
3	0	994,6796	3,63229012
3	0	995,1796	3,63217545
3	0	995,6796	3,6318891
3	0	996,1796	3,63167906
3	0	996,6796	3,63146901
3	0	997,1796	3,63127804
3	0	997,6796	3,63104892
3	0	998,1796	3,63068604
3	0	998,6796	3,63053346
3	0	999,1796	3,63043785
3	0	999,6796	3,63009429
3	0	1000,1796	3,62997961
3	0	1000,6796	3,62980771
3	0	1001,1796	3,6295023
3	0	1001,6796	3,62927318
3	0	1002,1796	3,62923503
3	0	1002,6796	3,62896752
3	0	1003,1796	3,62871933
3	0	1003,6796	3,62852836
3	0	1004,1796	3,62816572
3	0	1004,6796	3,62786007
3	0	1005,1796	3,62789822
3	0	1005,6796	3,62770724
3	0	1006,1796	3,6274209
3	0	1006,6796	3,62730622
3	0	1007,1796	3,62698174
3	0	1007,6796	3,62675261
3	0	1008,1796	3,62661886
3	0	1008,6796	3,62633252
3	0	1009,1796	3,62625623
3	0	1009,6796	3,62608433
3	0	1010,1796	3,62598872
3	0	1010,6796	3,62568331
3	0	1011,1796	3,62554955
3	0	1011,6796	3,62528229
3	0	1012,1796	3,62522507
3	0	1012,6796	3,62501502
3	0	1013,1796	3,62480497
3	0	1013,6796	3,62465215
3	0	1014,1796	3,62451839
3	0	1014,6796	3,62423205
3	0	1015,1796	3,62411737
3	0	1015,6796	3,62398386
3	0	1016,1796	3,62375474
3	0	1016,6796	3,62356377
3	0	1017,1796	3,62318182
3	0	1017,6796	3,62306738
3	0	1018,1796	3,6227808
3	0	1018,6796	3,62247539
3	0	1019,1796	3,62234163
3	0	1019,6796	3,62209344
3	0	1020,1796	3,62203622
3	0	1020,6796	3,62173057
3	0	1021,1796	3,62157798
3	0	1021,6796	3,62152052
3	0	1022,1796	3,62119603
3	0	1022,6796	3,62110043
3	0	1023,1796	3,62085223
3	0	1023,6796	3,62066126
3	0	1024,1796	3,62035584
3	0	1024,6796	3,6201458
3	0	1025,1796	3,62006927
3	0	1025,6796	3,61984015
3	0	1026,1796	3,61968756
3	0	1026,6796	3,6195538
3	0	1027,1796	3,61921
3	0	1027,6796	3,61905742
3	0	1028,1796	3,61901903
3	0	1028,6796	3,6186564
3	0	1029,1796	3,61856079
3	0	1029,6796	3,61825538
3	0	1030,1796	3,61794972
3	0	1030,6796	3,61791158
3	0	1031,1796	3,61758709
3	0	1031,6796	3,61752963
3	0	1032,1796	3,61709046
3	0	1032,6796	3,61709046
3	0	1033,1796	3,61684227
3	0	1033,6796	3,61667037
3	0	1034,1796	3,61653686
3	0	1034,6796	3,61634588
3	0	1035,1796	3,61617398
3	0	1035,6796	3,61605954
3	0	1036,1796	3,61586857
3	0	1036,6796	3,61563945
3	0	1037,1796	3,61556292
3	0	1037,6796	3,61510468
3	0	1038,1796	3,61514282
3	0	1038,6796	3,61493278
3	0	1039,1796	3,61476088
3	0	1039,6796	3,61466551
3	0	1040,1796	3,61464643
3	0	1040,6796	3,61422634
3	0	1041,1796	3,61397815
3	0	1041,6796	3,61382532
3	0	1042,1796	3,61374903
3	0	1042,6796	3,61351991
3	0	1043,1796	3,6132524
3	0	1043,6796	3,61321425
3	0	1044,1796	3,61302328
3	0	1044,6796	3,61287069
3	0	1045,1796	3,61271787
3	0	1045,6796	3,61250782
3	0	1046,1796	3,6122787
3	0	1046,6796	3,61197305
3	0	1047,1796	3,61189675
3	0	1047,6796	3,61164856
3	0	1048,1796	3,61149573
3	0	1048,6796	3,61117125
3	0	1049,1796	3,61103749
3	0	1049,6796	3,61099935
3	0	1050,1796	3,61067462
3	0	1050,6796	3,61054111
3	0	1051,1796	3,61029267
3	0	1051,6796	3,61025453
3	0	1052,1796	3,60994911
3	0	1052,6796	3,60975814
3	0	1053,1796	3,60958624
3	0	1053,6796	3,6094718
3	0	1054,1796	3,60918522
3	0	1054,6796	3,6089561
3	0	1055,1796	3,6087079
3	0	1055,6796	3,60855508
3	0	1056,1796	3,60845971
3	0	1056,6796	3,60830688
3	0	1057,1796	3,60807776
3	0	1057,6796	3,60773396
3	0	1058,1796	3,6076386
3	0	1058,6796	3,60750484
3	0	1059,1796	3,60714221
3	0	1059,6796	3,60708475
3	0	1060,1796	3,60706568
3	0	1060,6796	3,60676026
3	0	1061,1796	3,60666466
3	0	1061,6796	3,60635924
3	0	1062,1796	3,60624456
3	0	1062,6796	3,60605359
3	0	1063,1796	3,60603452
3	0	1063,6796	3,60584378
3	0	1064,1796	3,60622549
3	0	1064,6796	3,60592008
3	0	1065,1796	3,6057291
3	0	1065,6796	3,60561442
3	0	1066,1796	3,60536623
3	0	1066,6796	3,60515618
3	0	1067,1796	3,60498428
3	0	1067,6796	3,60469794
3	0	1068,1796	3,60435414
3	0	1068,6796	3,60391498
3	0	1069,1796	3,60362864
3	0	1069,6796	3,60360956
3	0	1070,1796	3,60345674
3	0	1070,6796	3,60324669
3	0	1071,1796	3,60313225
3	0	1071,6796	3,6028266
3	0	1072,1796	3,60273123
3	0	1072,6796	3,60261655
3	0	1073,1796	3,60250211
3	0	1073,6796	3,60229206
3	0	1074,1796	3,60208201
3	0	1074,6796	3,60191011
3	0	1075,1796	3,60173821
3	0	1075,6796	3,60166192
3	0	1076,1796	3,60149002
3	0	1076,6796	3,60139465
3	0	1077,1796	3,60106993
3	0	1077,6796	3,60087895
3	0	1078,1796	3,60070705
3	0	1078,6796	3,60049701
3	0	1079,1796	3,60036349
3	0	1079,6796	3,60024881
3	0	1080,1796	3,60013437
3	0	1080,6796	3,59992433
3	0	1081,1796	3,59963775
3	0	1081,6796	3,59952331
3	0	1082,1796	3,59940863
3	0	1082,6796	3,59906507
3	0	1083,1796	3,59887409
3	0	1083,6796	3,59872127
3	0	1084,1796	3,59858751
3	0	1084,6796	3,59833932
3	0	1085,1796	3,5982058
3	0	1085,6796	3,59799576
3	0	1086,1796	3,59778571
3	0	1086,6796	3,59763288
3	0	1087,1796	3,59744191
3	0	1087,6796	3,59715557
3	0	1088,1796	3,59705997
3	0	1088,6796	3,5967927
3	0	1089,1796	3,5967164
3	0	1089,6796	3,59642982
3	0	1090,1796	3,59639168
3	0	1090,6796	3,59612441
3	0	1091,1796	3,59589529
3	0	1091,6796	3,59574246
3	0	1092,1796	3,59560871
3	0	1092,6796	3,5953033
3	0	1093,1796	3,59516954
3	0	1093,6796	3,59499764
3	0	1094,1796	3,59476852
3	0	1094,6796	3,59455848
3	0	1095,1796	3,59442496
3	0	1095,6796	3,59425306
3	0	1096,1796	3,59392834
3	0	1096,6796	3,59392834
3	0	1097,1796	3,59369922
3	0	1097,6796	3,59345102
3	0	1098,1796	3,59320283
3	0	1098,6796	3,59310746
3	0	1099,1796	3,59285903
3	0	1099,6796	3,59270644
3	0	1100,1796	3,59247732
3	0	1100,6796	3,5923245
3	0	1101,1796	3,5921526
3	0	1101,6796	3,59194255
3	0	1102,1796	3,5917325
3	0	1102,6796	3,59163713
3	0	1103,1796	3,59131241
3	0	1103,6796	3,59110236
3	0	1104,1796	3,59091139
3	0	1104,6796	3,59068227
3	0	1105,1796	3,59052944
3	0	1105,6796	3,59035778
3	0	1106,1796	3,59043407
3	0	1106,6796	3,59026217
3	0	1107,1796	3,59014773
3	0	1107,6796	3,5898993
3	0	1108,1796	3,58982301
3	0	1108,6796	3,58957481
3	0	1109,1796	3,58944106
3	0	1109,6796	3,5892694
3	0	1110,1796	3,58913565
3	0	1110,6796	3,58882999
3	0	1111,1796	3,58865833
3	0	1111,6796	3,58842921
3	0	1112,1796	3,58831453
3	0	1112,6796	3,58821917
3	0	1113,1796	3,58806634
3	0	1113,6796	3,58783722
3	0	1114,1796	3,58756995
3	0	1114,6796	3,5874362
3	0	1115,1796	3,58714986
3	0	1115,6796	3,58705425
3	0	1116,1796	3,58678699
3	0	1116,6796	3,58646226
3	0	1117,1796	3,58642411
3	0	1117,6796	3,58619499
3	0	1118,1796	3,58608055
3	0	1118,6796	3,58585119
3	0	1119,1796	3,58579397
3	0	1119,6796	3,585603
3	0	1120,1796	3,58541203
3	0	1120,6796	3,58520198
3	0	1121,1796	3,58504939
3	0	1121,6796	3,58493471
3	0	1122,1796	3,58487749
3	0	1122,6796	3,58476281
3	0	1123,1796	3,58466744
3	0	1123,6796	3,58449554
3	0	1124,1796	3,5843811
3	0	1124,6796	3,58415174
3	0	1125,1796	3,58399916
3	0	1125,6796	3,58384633
3	0	1126,1796	3,58363628
3	0	1126,6796	3,58331156
3	0	1127,1796	3,58275795
3	0	1127,6796	3,5825479
3	0	1128,1796	3,58222318
3	0	1128,6796	3,58172679
3	0	1129,1796	3,58149767
3	0	1129,6796	3,58132577
3	0	1130,1796	3,58115387
3	0	1130,6796	3,58107758
3	0	1131,1796	3,58073378
3	0	1131,6796	3,58052373
3	0	1132,1796	3,58040929
3	0	1132,6796	3,58008456
3	0	1133,1796	3,57972193
3	0	1133,6796	3,57960725
3	0	1134,1796	3,57951188
3	0	1134,6796	3,5792253
3	0	1135,1796	3,57916808
3	0	1135,6796	3,57884336
3	0	1136,1796	3,57874799
3	0	1136,6796	3,57863331
3	0	1137,1796	3,57836604
3	0	1137,6796	3,57815599
3	0	1138,1796	3,57819414
3	0	1138,6796	3,57802248
3	0	1139,1796	3,57794595
3	0	1139,6796	3,57764053
3	0	1140,1796	3,57765961
3	0	1140,6796	3,57744956
3	0	1141,1796	3,57731581
3	0	1141,6796	3,57718229
3	0	1142,1796	3,57706761
3	0	1142,6796	3,57699132
3	0	1143,1796	3,57678127
3	0	1143,6796	3,57662845
3	0	1144,1796	3,5764184
3	0	1144,6796	3,57626557
3	0	1145,1796	3,57617021
3	0	1145,6796	3,5760746
3	0	1146,1796	3,57584548
3	0	1146,6796	3,57561636
3	0	1147,1796	3,57554007
3	0	1147,6796	3,57554007
3	0	1148,1796	3,57515812
3	0	1148,6796	3,57513905
3	0	1149,1796	3,57477617
3	0	1149,6796	3,5745852
3	0	1150,1796	3,57441354
3	0	1150,6796	3,57426071
3	0	1151,1796	3,57410789
3	0	1151,6796	3,57389784
3	0	1152,1796	3,57370687
3	0	1152,6796	3,57355428
3	0	1153,1796	3,57355428
3	0	1153,6796	3,5733633
3	0	1154,1796	3,57313418
3	0	1154,6796	3,57263756
3	0	1155,1796	3,572294
3	0	1155,6796	3,57200742
3	0	1156,1796	3,57200742
3	0	1156,6796	3,57183552
3	0	1157,1796	3,57158732
3	0	1157,6796	3,57133913
3	0	1158,1796	3,57114816
3	0	1158,6796	3,57111001
3	0	1159,1796	3,57103372
3	0	1159,6796	3,57084274
3	0	1160,1796	3,57070899
3	0	1160,6796	3,57065177
3	0	1161,1796	3,57042265
3	0	1161,6796	3,57032704
3	0	1162,1796	3,57017446
3	0	1162,6796	3,56992626
3	0	1163,1796	3,56973529
3	0	1163,6796	3,56963968
3	0	1164,1796	3,56954432
3	0	1164,6796	3,56944871
3	0	1165,1796	3,56920052
3	0	1165,6796	3,56906676
3	0	1166,1796	3,56900954
3	0	1166,6796	3,56881857
3	0	1167,1796	3,56874228
3	0	1167,6796	3,56853223
3	0	1168,1796	3,56841755
3	0	1168,6796	3,56834126
3	0	1169,1796	3,56807399
3	0	1169,6796	3,56803584
3	0	1170,1796	3,56776834
3	0	1170,6796	3,56746292
3	0	1171,1796	3,56732917
3	0	1171,6796	3,56721473
3	0	1172,1796	3,5670619
3	0	1172,6796	3,56683278
3	0	1173,1796	3,56669903
3	0	1173,6796	3,56643176
3	0	1174,1796	3,56633639
3	0	1174,6796	3,56614542
3	0	1175,1796	3,56612635
3	0	1175,6796	3,56595445
3	0	1176,1796	3,56582069
3	0	1176,6796	3,56561065
3	0	1177,1796	3,56538153
3	0	1177,6796	3,56515241
3	0	1178,1796	3,56509519
3	0	1178,6796	3,56486607
3	0	1179,1796	3,56482792
3	0	1179,6796	3,56469417
3	0	1180,1796	3,56444597
3	0	1180,6796	3,5644269
3	0	1181,1796	3,56398773
3	0	1181,6796	3,56389213
3	0	1182,1796	3,56358671
3	0	1182,6796	3,56341481
3	0	1183,1796	3,56320477
3	0	1183,6796	3,56310916
3	0	1184,1796	3,56299472
3	0	1184,6796	3,56278467
3	0	1185,1796	3,56268907
3	0	1185,6796	3,56247902
3	0	1186,1796	3,56230736
3	0	1186,6796	3,56221175
3	0	1187,1796	3,56215453
3	0	1187,6796	3,56182981
3	0	1188,1796	3,56158161
3	0	1188,6796	3,56158161
3	0	1189,1796	3,56146717
3	0	1189,6796	3,56125712
3	0	1190,1796	3,56104708
3	0	1190,6796	3,5608561
3	0	1191,1796	3,5608561
3	0	1191,6796	3,56072235
3	0	1192,1796	3,56053138
3	0	1192,6796	3,5605123
3	0	1193,1796	3,56020689
3	0	1193,6796	3,56007314
3	0	1194,1796	3,55982494
3	0	1194,6796	3,55971026
3	0	1195,1796	3,55950022
3	0	1195,6796	3,5591948
3	0	1196,1796	3,55900383
3	0	1196,6796	3,55892754
3	0	1197,1796	3,55887008
3	0	1197,6796	3,55867934
3	0	1198,1796	3,55862188
3	0	1198,6796	3,55856466
3	0	1199,1796	3,55837369
3	0	1199,6796	3,55824018
3	0	1200,1796	3,55820179
3	0	1200,6796	3,55797267
3	0	1201,1796	3,55780077
3	0	1201,6796	3,55782008
3	0	1202,1796	3,55745721
3	0	1202,6796	3,55741906
3	0	1203,1796	3,55720901
3	0	1203,6796	3,55699897
3	0	1204,1796	3,55680799
3	0	1204,6796	3,55669332
3	0	1205,1796	3,55634975
3	0	1205,6796	3,55623507
3	0	1206,1796	3,55608225
3	0	1206,6796	3,55600595
3	0	1207,1796	3,55581498
3	0	1207,6796	3,55550957
3	0	1208,1796	3,55558586
3	0	1208,6796	3,55541396
3	0	1209,1796	3,55501294
3	0	1209,6796	3,55491757
3	0	1210,1796	3,55482197
3	0	1210,6796	3,55451655
3	0	1211,1796	3,55442119
3	0	1211,6796	3,55432558
3	0	1212,1796	3,55407739
3	0	1212,6796	3,55402017
3	0	1213,1796	3,55381012
3	0	1213,6796	3,55377173
3	0	1214,1796	3,55352354
3	0	1214,6796	3,55348539
3	0	1215,1796	3,55327535
3	0	1215,6796	3,5532372
3	0	1216,1796	3,55298901
3	0	1216,6796	3,55285525
3	0	1217,1796	3,55285525
3	0	1217,6796	3,55268335
3	0	1218,1796	3,55253077
3	0	1218,6796	3,55237794
3	0	1219,1796	3,55214882
3	0	1219,6796	3,55211067
3	0	1220,1796	3,55199599
3	0	1220,6796	3,55165243
3	0	1221,1796	3,55159497
3	0	1221,6796	3,55136585
3	0	1222,1796	3,55128956
3	0	1222,6796	3,55111766
3	0	1223,1796	3,55085039
3	0	1223,6796	3,55077386
3	0	1224,1796	3,5506022
3	0	1224,6796	3,55041122
3	0	1225,1796	3,55027747
3	0	1225,6796	3,5500865
3	0	1226,1796	3,55002928
3	0	1226,6796	3,54968548
3	0	1227,1796	3,54968548
3	0	1227,6796	3,54960918
3	0	1228,1796	3,54955196
3	0	1228,6796	3,54953289
3	0	1229,1796	3,54939914
3	0	1229,6796	3,54915094
3	0	1230,1796	3,54917002
3	0	1230,6796	3,54907441
3	0	1231,1796	3,54880714
3	0	1231,6796	3,54867363
3	0	1232,1796	3,54846358
3	0	1232,6796	3,54836798
3	0	1233,1796	3,54815793
3	0	1233,6796	3,54789066
3	0	1234,1796	3,54783344
3	0	1234,6796	3,54756594
3	0	1235,1796	3,54731774
3	0	1235,6796	3,5472033
3	0	1236,1796	3,54712677
3	0	1236,6796	3,54689765
3	0	1237,1796	3,54678321
3	0	1237,6796	3,54670668
3	0	1238,1796	3,54643941
3	0	1238,6796	3,54640126
3	0	1239,1796	3,54622936
3	0	1239,6796	3,546134
3	0	1240,1796	3,54584742
3	0	1240,6796	3,54567552
3	0	1241,1796	3,54559922
3	0	1241,6796	3,54540825
3	0	1242,1796	3,54535103
3	0	1242,6796	3,54493093
3	0	1243,1796	3,54485464
3	0	1243,6796	3,54483533
3	0	1244,1796	3,54441524
3	0	1244,6796	3,54418612
3	0	1245,1796	3,54424357
3	0	1245,6796	3,54391885
3	0	1246,1796	3,5437088
3	0	1246,6796	3,54359436
3	0	1247,1796	3,54340339
3	0	1247,6796	3,54323149
3	0	1248,1796	3,54313588
3	0	1248,6796	3,54292583
3	0	1249,1796	3,54279232
3	0	1249,6796	3,54265857
3	0	1250,1796	3,54246759
3	0	1250,6796	3,54225755
3	0	1251,1796	3,54223847
3	0	1251,6796	3,54208589
3	0	1252,1796	3,54199028
3	0	1252,6796	3,54172301
3	0	1253,1796	3,54158926
3	0	1253,6796	3,54143643
3	0	1254,1796	3,54126477
3	0	1254,6796	3,54113102
3	0	1255,1796	3,54082561
3	0	1255,6796	3,54044366
3	0	1256,1796	3,54011893
3	0	1256,6796	3,54000449
3	0	1257,1796	3,53983259
3	0	1257,6796	3,53977537
3	0	1258,1796	3,53966069
3	0	1258,6796	3,5393362
3	0	1259,1796	3,53922153
3	0	1259,6796	3,5390687
3	0	1260,1796	3,53897333
3	0	1260,6796	3,53872514
3	0	1261,1796	3,53857231
3	0	1261,6796	3,53840041
3	0	1262,1796	3,53820944
3	0	1262,6274	3,53719759
3	0	1263,1274	3,53712106
3	0	1263,6274	3,5367775
3	0	1264,1274	3,53649092
3	0	1264,6274	3,5363574
3	0	1265,1168	3,53534532
3	0	1265,6168	3,53530717
3	0	1266,1168	3,53505874
3	0	1266,6168	3,534868
3	0	1267,1168	3,53467703
3	0	1267,6168	3,53465796
3	0	1268,1168	3,53431416
3	0	1268,6168	3,53427601
3	0	1269,1168	3,53414226
3	0	1269,6168	3,53374124
3	0	1270,1168	3,53349304
3	0	1270,6168	3,53318763
3	0	1271,1168	3,5331111
3	0	1271,6168	3,53305387
3	0	1272,1168	3,53292012
3	0	1272,6168	3,53265285
3	0	1273,1168	3,53263378
3	0	1273,6168	3,53255749
3	0	1274,1168	3,53244281
3	0	1274,6168	3,53206086
3	0	1275,1168	3,53158355
3	0	1275,6168	3,53123975
3	0	1276,1168	3,53112531
3	0	1276,6168	3,53104901
3	0	1277,1168	3,53085804
3	0	1277,6168	3,53053331
3	0	1278,1168	3,53038049
3	0	1278,6168	3,53015137
3	0	1279,1168	3,52994132
3	0	1279,6168	3,53009415
3	0	1280,1168	3,52992225
3	0	1280,6168	3,5297122
3	0	1281,1168	3,52923489
3	0	1281,6168	3,52917767
3	0	1282,1168	3,52910113
3	0	1282,6168	3,52889109
3	0	1283,1168	3,52860475
3	0	1283,6168	3,52835655
3	0	1284,1168	3,52810836
3	0	1284,6168	3,52797461
3	0	1285,1168	3,52791739
3	0	1285,6168	3,52765012
3	0	1286,1168	3,52736354
3	0	1286,6168	3,52715349
3	0	1287,1168	3,52719164
3	0	1287,6168	3,52694345
3	0	1288,1168	3,5272491
3	0	1288,6168	3,52719164
3	0	1289,1168	3,52734447
3	0	1289,6168	3,52721095
3	0	1290,1168	3,52705812
3	0	1290,6168	3,52709627
3	0	1291,1168	3,52688622
3	0	1291,6168	3,52679086
3	0	1292,1168	3,52679086
3	0	1292,6168	3,5265615
3	0	1293,1168	3,52633238
3	0	1293,6168	3,52600789
3	0	1294,1168	3,52583599
3	0	1294,6168	3,52581692
3	0	1295,1168	3,52535868
3	0	1295,6168	3,52512956
3	0	1296,1168	3,5250721
3	0	1296,6168	3,52474761
3	0	1297,1168	3,52467132
3	0	1297,6168	3,52472854
3	0	1298,1168	3,52455664
3	0	1298,6168	3,52442288
3	0	1299,1168	3,52425122
3	0	1299,6168	3,52419376
3	0	1300,1168	3,52400279
3	0	1300,6168	3,52381206
3	0	1301,1168	3,52364016
3	0	1301,6168	3,52343011
3	0	1302,1168	3,52329636
3	0	1302,6168	3,52306724
3	0	1303,1168	3,52302909
3	0	1303,6168	3,52297187
3	0	1304,1168	3,52276182
3	0	1304,6168	3,52268529
3	0	1305,1168	3,52257085
3	0	1305,6168	3,52245617
3	0	1306,1168	3,52213168
3	0	1306,6168	3,522017
3	0	1307,1168	3,52180696
3	0	1307,6168	3,52153969
3	0	1308,1168	3,52153969
3	0	1308,6168	3,52134871
3	0	1309,1168	3,52125311
3	0	1309,6168	3,52098584
3	0	1310,1168	3,52096677
3	0	1310,6168	3,52064228
3	0	1311,1168	3,5205276
3	0	1311,6168	3,52039385
3	0	1312,1168	3,52031755
3	0	1312,6168	3,52008843
3	0	1313,1168	3,51978302
3	0	1313,6168	3,51972556
3	0	1314,1168	3,51947737
3	0	1314,6168	3,519382
3	0	1315,1168	3,51922917
3	0	1315,6168	3,51892376
3	0	1316,1168	3,51854181
3	0	1316,6168	3,51840806
3	0	1317,1168	3,51835084
3	0	1317,6168	3,51836991
3	0	1318,1168	3,51806426
3	0	1318,6168	3,51787353
3	0	1319,1168	3,51791167
3	0	1319,6168	3,51768255
3	0	1320,1168	3,51749158
3	0	1320,6168	3,51749158
3	0	1321,1168	3,517205
3	0	1321,6168	3,517205
3	0	1322,1168	3,51697588
3	0	1322,6168	3,51682329
3	0	1323,1168	3,51680422
3	0	1323,6168	3,51670861
3	0	1324,1168	3,51646042
3	0	1324,6168	3,51657486
3	0	1325,1168	3,51661325
3	0	1325,6168	3,51642227
3	0	1326,1168	3,5164032
3	0	1326,6168	3,51609755
3	0	1327,1168	3,51596403
3	0	1327,6168	3,5158112
3	0	1328,1168	3,51558208
3	0	1328,6168	3,51546741
3	0	1329,1168	3,51514292
3	0	1329,6168	3,51499009
3	0	1330,1168	3,51472282
3	0	1330,6168	3,51460814
3	0	1331,1168	3,51441717
3	0	1331,6168	3,51411176
3	0	1332,1168	3,51405454
3	0	1332,6168	3,51378703
3	0	1333,1168	3,51371074
3	0	1333,6168	3,51351976
3	0	1334,1168	3,51332879
3	0	1334,6168	3,51319528
3	0	1335,1168	3,5129087
3	0	1335,6168	3,5126605
3	0	1336,1168	3,51210666
3	0	1336,6168	3,51185846
3	0	1337,1168	3,51168656
3	0	1337,6168	3,51153398
3	0	1338,1168	3,51149583
3	0	1338,6168	3,51128578
3	0	1339,1168	3,51109481
3	0	1339,6168	3,51094198
3	0	1340,1168	3,51059818
3	0	1340,6168	3,51056004
3	0	1341,1168	3,51036906
3	0	1341,6168	3,51004457
3	0	1342,1168	3,50991082
3	0	1342,6168	3,5096817
3	0	1343,1168	3,50939536
3	0	1343,6168	3,50916624
3	0	1344,1168	3,50903249
3	0	1344,6168	3,50901341
3	0	1345,1168	3,50870776
3	0	1345,6168	3,50849771
3	0	1346,1168	3,50844049
3	0	1346,6168	3,50828767
3	0	1347,1168	3,50807786
3	0	1347,6168	3,50777221
3	0	1348,1168	3,50758123
3	0	1348,6168	3,50733304
3	0	1349,1168	3,50744772
3	0	1349,6168	3,50716114
3	0	1350,1168	3,50697017
3	0	1350,6168	3,50677919
3	0	1351,1168	3,50681758
3	0	1351,6168	3,50666475
3	0	1352,1168	3,50630188
3	0	1352,6168	3,50622559
3	0	1353,1168	3,50599647
3	0	1353,6168	3,50591993
3	0	1354,1168	3,50593901
3	0	1354,6168	3,50559545
3	0	1355,1168	3,50515628
3	0	1355,4846	3,50414419
3	0	1355,9846	3,50427794
3	0	1356,4846	3,50404882
3	0	1356,9846	3,50387692
3	0	1357,4846	3,50378132
3	0	1357,9846	3,50368595
3	0	1358,4846	3,50357127
3	0	1358,9846	3,50328493
3	0	1359,4846	3,50317025
3	0	1359,9846	3,50311303
3	0	1360,4846	3,50297952
3	0	1360,9846	3,50290298
3	0	1361,4846	3,50292206
3	0	1361,9846	3,50275016
3	0	1362,4846	3,50263572
3	0	1362,9846	3,50250196
3	0	1363,4846	3,50238752
3	0	1363,9846	3,50212002
3	0	1364,4846	3,50202465
3	0	1364,9846	3,50177646
3	0	1365,4846	3,50168085
3	0	1365,9846	3,50139451
3	0	1366,4846	3,50116539
3	0	1366,9846	3,50072622
3	0	1367,2184	3,49971414
3	0	1367,7184	3,4989121
3	0	1368,2184	3,49877858
3	0	1368,7184	3,49862576
3	0	1369,2184	3,49853039
3	0	1369,7184	3,49839664
3	0	1370,2184	3,49830127
3	0	1370,7184	3,49824381
3	0	1371,2184	3,49803376
3	0	1371,7184	3,49811029
3	0	1372,2184	3,49803376
3	0	1372,7184	3,49786186
3	0	1373,2184	3,49782372
3	0	1373,7184	3,49772835
3	0	1374,2184	3,49765182
3	0	1374,7184	3,49765182
3	0	1375,2184	3,49753737
3	0	1375,7184	3,49755645
3	0	1376,2184	3,49740362
3	0	1376,7184	3,49719357
3	0	1377,2184	3,49709821
3	0	1377,7184	3,49685001
3	0	1378,2184	3,49677348
3	0	1378,7184	3,49669719
3	0	1379,2184	3,49644899
3	0	1379,7184	3,49658251
3	0	1380,2184	3,49595237
3	0	1380,7184	3,49599075
3	0	1381,2184	3,49579978
3	0	1381,7184	3,49576163
3	0	1382,2184	3,49579978
3	0	1382,7184	3,49579978
3	0	1383,2184	3,49553227
3	0	1383,7184	3,49547505
3	0	1384,2184	3,49530315
3	0	1384,7184	3,49539876
3	0	1385,2184	3,49509311
3	0	1385,7184	3,49476862
3	0	1386,2184	3,49467301
3	0	1386,7184	3,49457765
3	0	1387,2184	3,49429131
3	0	1387,7184	3,49423385
3	0	1388,2184	3,49410033
3	0	1388,7184	3,49404287
3	0	1389,2184	3,49381375
3	0	1389,7184	3,49356556
3	0	1390,2184	3,49324107
3	0	1390,7184	3,49310732
3	0	1391,2184	3,49291635
3	0	1391,7184	3,49274445
3	0	1392,2184	3,49249625
3	0	1392,7184	3,49226713
3	0	1393,2184	3,49205709
3	0	1393,7184	3,49190426
3	0	1394,2184	3,49194264
3	0	1394,7184	3,49184704
3	0	1395,2184	3,49182796
3	0	1395,7184	3,49167514
3	0	1396,2184	3,49135065
3	0	1396,7184	3,49125504
3	0	1397,2184	3,49100685
3	0	1397,7184	3,49083495
3	0	1398,2184	3,49073958
3	0	1398,7184	3,49047232
3	0	1399,2184	3,49031949
3	0	1399,7184	3,49033856
3	0	1400,2184	3,49014759
3	0	1400,7184	3,48993754
3	0	1401,2184	3,48995662
3	0	1401,7184	3,4896512
3	0	1402,2184	3,48959398
3	0	1402,7184	3,48928833
3	0	1403,2184	3,48900199
3	0	1403,7184	3,48898292
3	0	1404,2184	3,48894453
3	0	1404,7184	3,48881102
3	0	1405,2184	3,48854375
3	0	1405,7184	3,48841
3	0	1406,2184	3,48819995
3	0	1406,7184	3,487818
3	0	1407,2184	3,48737884
3	0	1407,7184	3,4869206
3	0	1408,2184	3,48669147
3	0	1408,7184	3,48671055
3	0	1409,2184	3,48678684
3	0	1409,7184	3,48669147
3	0	1410,2184	3,4865005
3	0	1410,7184	3,48663425
3	0	1411,2184	3,48655772
3	0	1411,7184	3,48636675
3	0	1412,2184	3,48636675
3	0	1412,7184	3,48623323
3	0	1413,2184	3,48625231
3	0	1413,7184	3,48606133
3	0	1414,2184	3,48579407
3	0	1414,7184	3,48577499
3	0	1415,2184	3,48545027
3	0	1415,7184	3,48527837
3	0	1416,2184	3,48503017
3	0	1416,7184	3,48545027
3	0	1417,2184	3,48546934
3	0	1417,7184	3,48531651
3	0	1418,2184	3,48489642
3	0	1418,7184	3,48482013
3	0	1419,2184	3,4846673
3	0	1419,7184	3,48459101
3	0	1420,2184	3,48432374
3	0	1420,7184	3,48417091
3	0	1421,2184	3,48403716
3	0	1421,7184	3,48382711
3	0	1422,2184	3,48375082
3	0	1422,7184	3,48384619
3	0	1423,2184	3,4835217
3	0	1423,7184	3,48319697
3	0	1424,2184	3,48329258
3	0	1424,7184	3,48310161
3	0	1425,2184	3,48313975
3	0	1425,7184	3,48275781
3	0	1426,2184	3,48260522
3	0	1426,7184	3,48258615
3	0	1427,2184	3,48252869
3	0	1427,7184	3,48245239
3	0	1428,2184	3,48218513
3	0	1428,7184	3,48226142
3	0	1429,2184	3,48216605
3	0	1429,7184	3,48178411
3	0	1430,2184	3,48159313
3	0	1430,7184	3,48163128
3	0	1431,2184	3,48140216
3	0	1431,7184	3,48121119
3	0	1432,2184	3,48096299
3	0	1432,7184	3,48067665
3	0	1433,2184	3,4805429
3	0	1433,7184	3,47998905
3	0	1434,2184	3,47916794
3	0	1434,6160	3,47815609
3	0	1435,1160	3,4775641
3	0	1435,6160	3,477144
3	0	1436,1160	3,47710586
3	0	1436,6160	3,47725844
3	0	1437,1160	3,47712493
3	0	1437,6160	3,47708678
3	0	1438,1160	3,47668576
3	0	1438,6160	3,47659016
3	0	1439,1160	3,47653294
3	0	1439,6160	3,47630382
3	0	1440,1160	3,4758265
3	0	1440,4506	3,47471905
3	0	1440,9506	3,47393608
3	0	1441,1650	3,4728477
3	0	1441,3198	3,47181654
3	0	1441,5410	3,47078538
3	0	1442,0410	3,47011709
3	0	1442,5410	3,46963978
3	0	1442,8630	3,46858954
3	0	1442,9246	3,46755838
3	0	1442,9948	3,46858954
3	0	1443,2212	3,46755838
3	0	1443,7174	3,46652722
3	0	1444,2174	3,46662259
3	0	1444,7174	3,46643186
3	0	1445,2174	3,4663744
3	0	1445,7174	3,46631718
3	0	1446,2174	3,46650815
3	0	1446,4670	3,46547699
3	0	1446,9670	3,4654007
3	0	1447,4670	3,46513319
3	0	1447,9670	3,46536255
3	0	1448,4670	3,46538162
3	0	1448,9670	3,46513319
3	0	1449,4670	3,46509504
3	0	1449,9670	3,46499968
3	0	1450,4670	3,46467495
3	0	1450,9670	3,46461773
3	0	1451,4670	3,46448398
3	0	1451,9670	3,46415949
3	0	1452,4670	3,46381569
3	0	1452,9670	3,46360564
3	0	1453,4670	3,46312833
3	0	1453,9670	3,46316648
3	0	1454,4670	3,46289921
3	0	1454,9670	3,46286106
3	0	1455,4670	3,46265101
3	0	1455,9670	3,4629755
3	0	1456,4670	3,46263194
3	0	1456,9140	3,46158171
3	0	1457,1464	3,4605124
3	0	1457,6464	3,46081781
3	0	1458,1464	3,46158171
3	0	1458,5832	3,46263194
3	0	1459,0832	3,46291828
3	0	1459,5832	3,46383476
3	0	1460,0832	3,46415949
3	0	1460,5832	3,4648087
3	0	1460,9702	3,46582079
3	0	1461,4702	3,46624088
3	0	1461,9702	3,46666098
3	0	1462,4264	3,46771121
3	0	1462,9264	3,46805477
3	0	1463,4264	3,46874213
3	0	1463,9264	3,46883774
3	0	1464,4264	3,46885681
3	0	1464,9264	3,46906686
3	0	1465,4264	3,46891403
3	0	1465,9264	3,46923876
3	0	1466,4264	3,46881866
3	0	1466,9264	3,46883774
3	0	1467,4264	3,46862769
3	0	1467,9264	3,46874213
3	0	1468,4264	3,46830297
3	0	1468,9264	3,4679594
3	0	1469,4264	3,46801662
3	0	1469,9264	3,46782565
3	0	1470,4264	3,4676919
3	0	1470,9264	3,46753931
3	0	1471,4264	3,46767282
3	0	1471,9264	3,46759653
3	0	1472,4264	3,46753931
3	0	1472,9264	3,46736741
3	0	1473,4264	3,46719551
3	0	1473,9264	3,46708107
3	0	1474,4264	3,46702361
3	0	1474,9264	3,46685195
3	0	1475,4264	3,46669912
3	0	1475,9264	3,46650815
3	0	1476,4264	3,46627903
3	0	1476,9264	3,4661262
3	0	1477,4264	3,46608806
3	0	1477,9264	3,46599245
3	0	1478,4264	3,46582079
3	0	1478,9264	3,46568704
3	0	1479,4264	3,46559167
3	0	1479,9264	3,46530509
3	0	1480,4264	3,46541977
3	0	1480,9264	3,46528602
3	0	1481,4264	3,46524787
3	0	1481,9264	3,4651525
3	0	1482,4264	3,46524787
3	0	1482,9264	3,4651525
3	0	1483,4264	3,46511412
3	0	1483,9264	3,4648087
3	0	1484,4264	3,46482778
3	0	1484,9264	3,46484685
3	0	1485,4264	3,4644649
3	0	1485,9264	3,46423578
3	0	1486,4264	3,46402574
3	0	1486,9264	3,46394944
3	0	1487,4264	3,46377754
3	0	1487,9264	3,4635675
3	0	1488,4264	3,4635675
3	0	1488,9264	3,46351027
3	0	1489,4264	3,46330023
3	0	1489,9264	3,46310925
3	0	1490,4264	3,4629755
3	0	1490,9264	3,46291828
3	0	1491,4264	3,46267009
3	0	1491,9264	3,46267009
3	0	1492,4264	3,46288013
3	0	1492,9264	3,46270823
3	0	1493,4264	3,46267009
3	0	1493,9264	3,46263194
3	0	1494,4264	3,4628036
3	0	1494,9264	3,46255541
3	0	1495,4264	3,46261287
3	0	1495,9264	3,46253633
3	0	1496,4264	3,4629755
3	0	1496,9264	3,46307111
3	0	1497,4264	3,46303296
3	0	1497,9264	3,46309018
3	0	1498,4264	3,46320462
3	0	1498,9264	3,46303296
3	0	1499,4264	3,46284199
3	0	1499,9264	3,46276546
3	0	1500,4264	3,46249819
3	0	1500,9264	3,46209717
3	0	1501,4264	3,46188712
3	0	1501,9264	3,46196365
3	0	1502,4264	3,46196365
3	0	1502,9264	3,46177268
3	0	1503,4264	3,46160078
3	0	1503,9264	3,4613142
3	0	1504,4264	3,46123791
3	0	1504,9264	3,46104693
3	0	1505,4264	3,46087503
3	0	1505,9264	3,46066499
3	0	1506,4264	3,46045494
3	0	1506,9264	3,46035957
3	0	1507,4264	3,46001577
3	0	1507,9264	3,45976758
3	0	1508,4264	3,45984411
3	0	1508,9264	3,46014953
3	0	1509,4264	3,46001577
3	0	1509,9264	3,45990133
3	0	1510,4264	3,45969129
3	0	1510,9264	3,45950031
3	0	1511,4264	3,45934749
3	0	1511,9264	3,45942402
3	0	1512,4264	3,45929027
3	0	1512,9264	3,45909929
3	0	1513,4264	3,45904207
3	0	1513,9264	3,45883203
3	0	1514,4264	3,45871735
3	0	1514,9264	3,45848823
3	0	1515,4264	3,45812535
3	0	1515,9264	3,45783901
3	0	1516,4264	3,45757174
3	0	1516,9264	3,45717072
3	0	1517,4264	3,45692253
3	0	1517,9264	3,45671248
3	0	1518,4264	3,45696068
3	0	1518,9264	3,45682693
3	0	1519,4264	3,45713258
3	0	1519,9264	3,4570179
3	0	1520,4264	3,4570179
3	0	1520,9264	3,45665526
3	0	1521,4264	3,45655966
3	0	1521,9264	3,45631146
3	0	1522,4264	3,45621586
3	0	1522,9264	3,45600581
3	0	1523,4264	3,455796
3	0	1523,9264	3,4557004
3	0	1524,4264	3,45568132
3	0	1524,9264	3,45573854
3	0	1525,4264	3,45560503
3	0	1525,9264	3,45564318
3	0	1526,4264	3,45575762
3	0	1526,9264	3,45589137
3	0	1527,4264	3,45554757
3	0	1527,9264	3,4552803
3	0	1528,4264	3,45524216
3	0	1528,9264	3,4551084
3	0	1529,4264	3,45474577
3	0	1529,9264	3,4541347
3	0	1530,4264	3,45405817
3	0	1530,9264	3,45388651
3	0	1531,4264	3,45380998
3	0	1531,9264	3,45371461
3	0	1532,4264	3,45375276
3	0	1532,9264	3,45375276
3	0	1533,4264	3,45331359
3	0	1533,9264	3,45338988
3	0	1534,4264	3,45285535
3	0	1534,9264	3,45258784
3	0	1535,4264	3,45222521
3	0	1535,9264	3,4521296
3	0	1536,4264	3,45209146
3	0	1536,9264	3,45214868
3	0	1537,4264	3,45188141
3	0	1537,9264	3,45169044
3	0	1538,4264	3,45140409
3	0	1538,9264	3,45119405
3	0	1539,4264	3,450984
3	0	1539,9264	3,45067835
3	0	1540,4264	3,4506402
3	0	1540,9264	3,4504683
3	0	1541,4264	3,45048761
3	0	1541,9264	3,45041108
3	0	1542,4264	3,45039201
3	0	1542,9264	3,45006752
3	0	1543,4264	3,44997191
3	0	1543,9264	3,44974279
3	0	1544,4264	3,44958997
3	0	1544,9264	3,4493227
3	0	1545,4264	3,44943738
3	0	1545,9264	3,44918895
3	0	1546,3640	3,4481771
3	0	1546,8640	3,44815803
3	0	1547,3640	3,44794798
3	0	1547,8640	3,44781423
3	0	1548,3640	3,44777608
3	0	1548,8640	3,44764233
3	0	1549,3640	3,44756603
3	0	1549,8640	3,44752789
3	0	1550,3640	3,44750881
3	0	1550,8640	3,44724131
3	0	1551,3640	3,44703126
3	0	1551,8640	3,44685936
3	0	1552,3640	3,44684029
3	0	1552,8640	3,44680214
3	0	1553,3640	3,44663024
3	0	1553,8640	3,44653487
3	0	1554,3640	3,4463439
3	0	1554,8640	3,44632483
3	0	1555,3640	3,44619107
3	0	1555,8640	3,44638205
3	0	1556,3640	3,44663024
3	0	1556,8640	3,44663024
3	0	1557,3640	3,44649673
3	0	1557,8640	3,44613385
3	0	1558,3640	3,44573283
3	0	1558,8640	3,44561839
3	0	1559,3640	3,44552279
3	0	1559,8640	3,44550371
3	0	1560,3640	3,44552279
3	0	1560,8640	3,44577098
3	0	1561,3640	3,44567561
3	0	1561,8640	3,44582844
3	0	1562,3640	3,446172
3	0	1562,8640	3,4462676
3	0	1563,3640	3,44603848
3	0	1563,8640	3,44584751
3	0	1564,3640	3,44565654
3	0	1564,8640	3,44569468
3	0	1565,3640	3,44577098
3	0	1565,8640	3,44548464
3	0	1566,3640	3,44536996
3	0	1566,8640	3,44512177
3	0	1567,3640	3,44504547
3	0	1567,8640	3,44527459
3	0	1568,3640	3,44548464
3	0	1568,8640	3,44546556
3	0	1569,3640	3,44548464
3	0	1569,8640	3,44510269
3	0	1570,3640	3,44535089
3	0	1570,8640	3,4451983
3	0	1571,3640	3,44514084
3	0	1571,8640	3,4450264
3	0	1572,3640	3,44491172
3	0	1572,8640	3,44472075
3	0	1573,3640	3,44473982
3	0	1573,8640	3,44470167
3	0	1574,3640	3,44441533
3	0	1574,8640	3,44428158
3	0	1575,3640	3,44422436
3	0	1575,8640	3,44399524
3	0	1576,3640	3,443537
3	0	1576,8640	3,44346046
3	0	1577,3640	3,44357514
3	0	1577,8640	3,44344139
3	0	1578,3640	3,44340324
3	0	1578,8640	3,44346046
3	0	1579,3640	3,44305968
3	0	1579,6796	3,44321227