EC-Lab ASCII FILE
Nb header lines : 46                          

Open Circuit Voltage

Run on channel : 1 (SN 6985)
Grouped channel(s) : 1
User : 
CE vs. WE compliance from -10 V to 10 V
Electrode connection : standard
Ewe ctrl range : min = 0,00 V, max = 5,00 V
Acquisition started on : 04.22.2015 16:16:38
Saved on :
	File : LLTO_LP30_Li_06_OCV_C01.mpr
	Directory : C:\Hupfer\Studenten Batterietests\LLTO_LP30_Li\
	Host : 192.168.0.2
Device : VMP3 (SN 0324)
Address : 192.168.0.1
EC-Lab for windows v10.33 (software)
Internet server v10.33 (firmware)
Command interpretor v10.32 (firmware)
Electrode material : 
Initial state : 
Electrolyte : 
Comments : 
Mass of active material : 0,001 mg
 at x = 0,000
Molecular weight of active material (at x = 0) : 0,001 g/mol
Atomic weight of intercalated ion : 0,001 g/mol
Acquisition started at : xo = 0,000
Number of e- transfered per intercalated ion : 1
for DX = 1, DQ = 26,801 mA.h
Battery capacity : 0,000 A.h
Electrode surface area : 0,001 cm²
Characteristic mass : 0,001 g
tR (h:m:s)          0:15:0,0000         
dER/dt (mV/h)       1,0                 
dER (mV)            1,00                
dtR (s)             0,5000              
E range min (V)     0,000               
E range max (V)     5,000               

Number of loops : 1
Loop 0 from point number 0 to 1843

mode	error	time/s	Ewe/V
3	0	456603,5995	3,24233389
3	0	456603,7687	3,24130273
3	0	456603,9651	3,24029088
3	0	456604,1685	3,23927879
3	0	456604,3471	3,23824763
3	0	456604,5571	3,23721647
3	0	456604,7565	3,23620439
3	0	456604,9543	3,23515415
3	0	456605,1831	3,2341423
3	0	456605,3997	3,23309207
3	0	456605,6137	3,23200369
3	0	456605,8331	3,2309916
3	0	456606,0637	3,22996044
3	0	456606,2805	3,22894835
3	0	456606,5033	3,22791719
3	0	456606,7245	3,22690535
3	0	456606,9435	3,22587419
3	0	456607,1733	3,2248621
3	0	456607,4003	3,22381186
3	0	456607,6321	3,22279978
3	0	456607,8645	3,22173047
3	0	456608,1233	3,22066116
3	0	456608,3599	3,21964908
3	0	456608,5965	3,21863723
3	0	456608,8245	3,21758699
3	0	456609,0831	3,21651769
3	0	456609,3143	3,2155056
3	0	456609,5629	3,21449351
3	0	456609,8177	3,21348143
3	0	456610,0569	3,2124505
3	0	456610,3139	3,2113812
3	0	456610,5861	3,21031165
3	0	456610,8371	3,2092998
3	0	456611,0917	3,20826864
3	0	456611,3605	3,20723748
3	0	456611,6233	3,2062254
3	0	456611,8957	3,20515609
3	0	456612,1673	3,204144
3	0	456612,4319	3,20313215
3	0	456612,6835	3,20210099
3	0	456612,9659	3,20106983
3	0	456613,2423	3,20005774
3	0	456613,5163	3,19904566
3	0	456613,7865	3,19803381
3	0	456614,0707	3,19700265
3	0	456614,3273	3,19599056
3	0	456614,6237	3,19492126
3	0	456614,9247	3,19387102
3	0	456615,2075	3,19283986
3	0	456615,4961	3,1918087
3	0	456615,8043	3,19079685
3	0	456616,0971	3,18978477
3	0	456616,3827	3,18877268
3	0	456616,6725	3,18774152
3	0	456616,9823	3,18672967
3	0	456617,2793	3,18567944
3	0	456617,5935	3,18464828
3	0	456617,9041	3,18363619
3	0	456618,1875	3,1826241
3	0	456618,5161	3,18161201
3	0	456618,8269	3,18056202
3	0	456619,1273	3,17954993
3	0	456619,4651	3,17851877
3	0	456619,7737	3,17750669
3	0	456620,0997	3,17647552
3	0	456620,4167	3,17546368
3	0	456620,7619	3,17439413
3	0	456621,1021	3,17338228
3	0	456621,4385	3,1723702
3	0	456621,7613	3,17135811
3	0	456622,0889	3,17034602
3	0	456622,4359	3,1693151
3	0	456622,7925	3,16828394
3	0	456623,1317	3,16727185
3	0	456623,4725	3,16625977
3	0	456623,8457	3,16522861
3	0	456624,2105	3,16417837
3	0	456624,5519	3,16316652
3	0	456624,9129	3,16215444
3	0	456625,2797	3,16112328
3	0	456625,6423	3,16011119
3	0	456626,0209	3,15909934
3	0	456626,3933	3,15808725
3	0	456626,7519	3,15705609
3	0	456627,1347	3,15604401
3	0	456627,5115	3,15503192
3	0	456627,8761	3,15402007
3	0	456628,2579	3,15300798
3	0	456628,6689	3,1519959
3	0	456629,0103	3,15096474
3	0	456629,4713	3,1499145
3	0	456629,8563	3,14890265
3	0	456630,2485	3,14787149
3	0	456630,6865	3,14684033
3	0	456631,0647	3,14582825
3	0	456631,5029	3,14481616
3	0	456631,9101	3,14380431
3	0	456632,3115	3,14279222
3	0	456632,7313	3,14176106
3	0	456633,1925	3,14074898
3	0	456633,6167	3,13971782
3	0	456634,0523	3,13870597
3	0	456634,4805	3,13769388
3	0	456634,9211	3,13666272
3	0	456635,3705	3,13565063
3	0	456635,8037	3,13461947
3	0	456636,2773	3,13360763
3	0	456636,7139	3,13259554
3	0	456637,1849	3,13158345
3	0	456637,6401	3,13049507
3	0	456638,1401	3,12965488
3	0	456638,5337	3,12862372
3	0	456639,0329	3,12759256
3	0	456639,5167	3,12658072
3	0	456640,0167	3,125664
3	0	456640,4569	3,12465191
3	0	456640,9527	3,12360168
3	0	456641,4509	3,12257075
3	0	456641,9509	3,12165403
3	0	456642,4491	3,12058473
3	0	456642,9491	3,11974454
3	0	456643,3849	3,11873269
3	0	456643,8849	3,11787343
3	0	456644,3347	3,11686134
3	0	456644,8347	3,1160593
3	0	456645,3033	3,11493278
3	0	456645,8033	3,11428356
3	0	456646,2357	3,11327147
3	0	456646,7357	3,11250758
3	0	456647,1995	3,11149573
3	0	456647,6995	3,11067462
3	0	456648,1927	3,10966253
3	0	456648,6927	3,10897517
3	0	456649,1481	3,10794401
3	0	456649,6481	3,10725665
3	0	456650,1001	3,10622549
3	0	456650,6001	3,10544252
3	0	456651,1001	3,10467863
3	0	456651,5891	3,10364771
3	0	456652,0891	3,10292196
3	0	456652,5891	3,10213923
3	0	456653,0631	3,10112715
3	0	456653,5631	3,10051608
3	0	456654,0561	3,09948492
3	0	456654,5561	3,09885478
3	0	456655,0561	3,09799552
3	0	456655,5561	3,09719348
3	0	456656,0561	3,09629607
3	0	456656,5561	3,09553218
3	0	456657,0561	3,09482574
3	0	456657,5561	3,09411931
3	0	456658,0303	3,09308815
3	0	456658,5303	3,09251523
3	0	456659,0303	3,09171319
3	0	456659,5303	3,09085393
3	0	456660,0303	3,09018564
3	0	456660,5303	3,08940291
3	0	456661,0303	3,08869624
3	0	456661,5303	3,08804703
3	0	456661,9943	3,08701587
3	0	456662,4943	3,08648133
3	0	456662,9943	3,0857749
3	0	456663,4943	3,08506823
3	0	456663,9943	3,08434272
3	0	456664,4943	3,0835979
3	0	456664,9943	3,08304429
3	0	456665,4943	3,08216596
3	0	456665,9943	3,08145928
3	0	456666,4943	3,08075285
3	0	456666,9943	3,08008456
3	0	456667,4943	3,07945442
3	0	456667,9943	3,0787096
3	0	456668,4943	3,07794595
3	0	456668,9943	3,07735395
3	0	456669,4943	3,07670474
3	0	456669,9943	3,07595992
3	0	456670,4943	3,07534885
3	0	456670,9943	3,07460427
3	0	456671,4943	3,07395506
3	0	456671,9943	3,07328677
3	0	456672,4943	3,07261848
3	0	456672,9943	3,07206464
3	0	456673,4943	3,07141542
3	0	456673,9943	3,07082343
3	0	456674,4943	3,07009792
3	0	456674,9943	3,06948686
3	0	456675,4943	3,06883764
3	0	456675,9943	3,06830287
3	0	456676,4943	3,06763458
3	0	456676,9943	3,06706166
3	0	456677,4943	3,06633615
3	0	456677,9943	3,06583977
3	0	456678,4943	3,06519055
3	0	456678,9943	3,06456041
3	0	456679,4943	3,06400657
3	0	456679,9943	3,06331921
3	0	456680,4943	3,06268907
3	0	456680,9943	3,06203985
3	0	456681,4943	3,06160069
3	0	456681,9943	3,0609324
3	0	456682,4943	3,0603404
3	0	456682,9943	3,05980563
3	0	456683,4943	3,05917549
3	0	456683,9943	3,05866003
3	0	456684,4943	3,05806804
3	0	456684,9943	3,0575335
3	0	456685,4943	3,05696058
3	0	456685,9943	3,05636859
3	0	456686,4943	3,0558722
3	0	456686,9943	3,05526114
3	0	456687,4943	3,05465007
3	0	456687,9943	3,05424905
3	0	456688,4943	3,05369544
3	0	456688,9943	3,05308437
3	0	456689,4943	3,05266428
3	0	456689,9943	3,05201507
3	0	456690,4943	3,05138493
3	0	456690,9943	3,0508883
3	0	456691,4943	3,05029655
3	0	456691,9943	3,0496664
3	0	456692,4943	3,04936075
3	0	456692,9943	3,04888344
3	0	456693,4943	3,048177
3	0	456693,9943	3,04779506
3	0	456694,4943	3,04724121
3	0	456694,9943	3,04674482
3	0	456695,4943	3,04613376
3	0	456695,9943	3,04569459
3	0	456696,4943	3,0451982
3	0	456696,9943	3,04464436
3	0	456697,4943	3,04424334
3	0	456697,9943	3,0437851
3	0	456698,4943	3,04321218
3	0	456698,9943	3,04271579
3	0	456699,4943	3,04220009
3	0	456699,9943	3,04176092
3	0	456700,4943	3,04116917
3	0	456700,9943	3,04076815
3	0	456701,4943	3,0402143
3	0	456701,9943	3,03981328
3	0	456702,4943	3,0392406
3	0	456702,9943	3,03880143
3	0	456703,4943	3,03832388
3	0	456703,9943	3,03777027
3	0	456704,4943	3,03729272
3	0	456704,9943	3,03679633
3	0	456705,4943	3,03635716
3	0	456705,9943	3,03578424
3	0	456706,4943	3,03538322
3	0	456706,9943	3,03492498
3	0	456707,4943	3,03452396
3	0	456707,9943	3,0340085
3	0	456708,4943	3,0336647
3	0	456708,9943	3,03314924
3	0	456709,4943	3,03255725
3	0	456709,9943	3,0321753
3	0	456710,4943	3,03173614
3	0	456710,9943	3,03123975
3	0	456711,4943	3,03080058
3	0	456711,9943	3,03034234
3	0	456712,4943	3,03003669
3	0	456712,9943	3,02950215
3	0	456713,4943	3,02906299
3	0	456713,9943	3,02856636
3	0	456714,4943	3,02824187
3	0	456714,9943	3,02774525
3	0	456715,4943	3,02730608
3	0	456715,9943	3,02679062
3	0	456716,4942	3,02640867
3	0	456716,9942	3,02591228
3	0	456717,4942	3,02551126
3	0	456717,9942	3,02511024
3	0	456718,4942	3,02469015
3	0	456718,9942	3,02421284
3	0	456719,4942	3,02384996
3	0	456719,9942	3,02346802
3	0	456720,4942	3,02295256
3	0	456720,9942	3,02257061
3	0	456721,4942	3,02220774
3	0	456721,9942	3,02186418
3	0	456722,4942	3,02136755
3	0	456722,9942	3,02094746
3	0	456723,4942	3,02048922
3	0	456723,9942	3,02006912
3	0	456724,4942	3,01964903
3	0	456724,9942	3,01928639
3	0	456725,4942	3,01878977
3	0	456725,9942	3,01854157
3	0	456726,4942	3,01812148
3	0	456726,9942	3,01751041
3	0	456727,4942	3,01733875
3	0	456727,9942	3,01689935
3	0	456728,4942	3,01651764
3	0	456728,9942	3,01615477
3	0	456729,4942	3,0157156
3	0	456729,9942	3,01527643
3	0	456730,4942	3,01493263
3	0	456730,9942	3,0143981
3	0	456731,4942	3,01393986
3	0	456731,9942	3,01365328
3	0	456732,4942	3,01344323
3	0	456732,9942	3,01287031
3	0	456733,4942	3,0125649
3	0	456733,9942	3,01208758
3	0	456734,4942	3,011801
3	0	456734,9942	3,01136184
3	0	456735,4942	3,01105642
3	0	456735,9942	3,01054096
3	0	456736,4942	3,0103116
3	0	456736,9942	3,0099299
3	0	456737,4942	3,00964332
3	0	456737,9942	3,0092423
3	0	456738,4942	3,00889874
3	0	456738,9942	3,00842142
3	0	456739,4942	3,00803947
3	0	456739,9942	3,00771475
3	0	456740,4942	3,00723743
3	0	456740,9942	3,00700831
3	0	456741,4942	3,00664544
3	0	456741,9942	3,0061872
3	0	456742,4942	3,0060153
3	0	456742,9942	3,00548077
3	0	456743,4942	3,00498414
3	0	456743,9942	3,00481248
3	0	456744,4942	3,00444961
3	0	456744,9942	3,00412488
3	0	456745,4942	3,00368571
3	0	456745,9942	3,00334215
3	0	456746,4942	3,00305557
3	0	456746,9942	3,00263548
3	0	456747,4942	3,00238729
3	0	456747,9942	3,00200534
3	0	456748,4942	3,0015471
3	0	456748,9942	3,00118446
3	0	456749,4942	3,00087881
3	0	456749,9942	3,00061154
3	0	456750,4942	3,0001533
3	0	456750,9942	2,99975228
3	0	456751,4942	2,99948502
3	0	456751,9942	2,99906492
3	0	456752,4942	2,99868298
3	0	456752,9942	2,99843478
3	0	456753,4942	2,9981482
3	0	456753,9942	2,99772811
3	0	456754,4942	2,99744177
3	0	456754,9942	2,99713612
3	0	456755,4942	2,99679255
3	0	456755,9942	2,99635339
3	0	456756,4942	2,99621964
3	0	456756,9942	2,99578047
3	0	456757,4942	2,99541759
3	0	456757,9942	2,99505496
3	0	456758,4942	2,99473023
3	0	456758,9942	2,99434829
3	0	456759,4942	2,99406195
3	0	456759,9942	2,99373722
3	0	456760,4942	2,99331713
3	0	456760,9942	2,99304986
3	0	456761,4942	2,99283981
3	0	456761,9942	2,99238157
3	0	456762,4942	2,99215245
3	0	456762,9942	2,99167514
3	0	456763,4942	2,99142694
3	0	456763,9942	2,99115944
3	0	456764,4942	2,99075842
3	0	456764,9942	2,99058676
3	0	456765,4942	2,99010921
3	0	456765,9942	2,98986101
3	0	456766,4942	2,98953652
3	0	456766,9942	2,98928833
3	0	456767,4942	2,98888731
3	0	456767,9942	2,9886198
3	0	456768,4942	2,98831439
3	0	456768,9942	2,98798966
3	0	456769,4942	2,98768425
3	0	456769,9942	2,98743606
3	0	456770,4942	2,98703504
3	0	456770,9942	2,98672938
3	0	456771,4942	2,98644304
3	0	456771,9942	2,9861567
3	0	456772,4942	2,98575568
3	0	456772,9942	2,98543096
3	0	456773,4942	2,98514462
3	0	456773,9942	2,9847436
3	0	456774,4942	2,98445725
3	0	456774,9942	2,98428535
3	0	456775,4942	2,98399901
3	0	456775,9942	2,98367429
3	0	456776,4942	2,9833498
3	0	456776,9942	2,98308229
3	0	456777,4942	2,98271966
3	0	456777,9942	2,98254776
3	0	456778,4942	2,98205113
3	0	456778,9942	2,98176479
3	0	456779,4942	2,98153567
3	0	456779,9942	2,98126841
3	0	456780,4942	2,98094368
3	0	456780,9942	2,98058105
3	0	456781,4942	2,98033261
3	0	456781,9942	2,97991252
3	0	456782,4942	2,97977901
3	0	456782,9942	2,97937799
3	0	456783,4942	2,97909164
3	0	456783,9942	2,97882414
3	0	456784,4942	2,97855687
3	0	456784,9942	2,97825146
3	0	456785,4942	2,97788858
3	0	456785,9942	2,97769761
3	0	456786,4942	2,97733474
3	0	456786,9942	2,97710562
3	0	456787,4942	2,97674298
3	0	456787,9942	2,9764564
3	0	456788,4942	2,97622728
3	0	456788,9942	2,97596002
3	0	456789,4942	2,97561622
3	0	456789,9942	2,9753108
3	0	456790,4942	2,97510076
3	0	456790,9942	2,97477603
3	0	456791,4942	2,97450876
3	0	456791,9942	2,97426057
3	0	456792,4942	2,97393584
3	0	456792,9942	2,97359228
3	0	456793,4942	2,97340131
3	0	456793,9942	2,97301936
3	0	456794,4942	2,97271395
3	0	456794,9942	2,9725039
3	0	456795,4942	2,97231293
3	0	456795,9942	2,97196913
3	0	456796,4942	2,97166371
3	0	456796,9942	2,97139621
3	0	456797,4942	2,97130084
3	0	456797,9942	2,97088075
3	0	456798,4942	2,97055602
3	0	456798,9942	2,97034597
3	0	456799,4942	2,97007871
3	0	456799,9942	2,96983051
3	0	456800,4942	2,96962047
3	0	456800,9942	2,96927667
3	0	456801,4942	2,96889496
3	0	456801,9942	2,96864653
3	0	456802,4942	2,96853209
3	0	456802,9942	2,96807384
3	0	456803,4942	2,96792102
3	0	456803,9942	2,96763468
3	0	456804,4942	2,96742463
3	0	456804,9942	2,96708083
3	0	456805,4942	2,96679449
3	0	456805,9942	2,9665463
3	0	456806,4942	2,96629786
3	0	456806,9942	2,96604967
3	0	456807,4942	2,96580148
3	0	456807,9942	2,96555328
3	0	456808,4942	2,96517134
3	0	456808,9942	2,96501851
3	0	456809,4942	2,9646368
3	0	456809,9942	2,96450305
3	0	456810,4942	2,96417832
3	0	456810,9942	2,96385384
3	0	456811,4942	2,96358657
3	0	456811,9942	2,96335745
3	0	456812,4942	2,96310902
3	0	456812,9942	2,96284175
3	0	456813,4942	2,96255541
3	0	456813,9942	2,96226883
3	0	456814,4942	2,96205878
3	0	456814,9942	2,96175337
3	0	456815,4942	2,9615624
3	0	456815,9942	2,9613142
3	0	456816,4942	2,96100855
3	0	456816,9942	2,96070313
3	0	456817,4942	2,96058869
3	0	456817,9942	2,96030211
3	0	456818,4942	2,95992017
3	0	456818,9942	2,95967197
3	0	456819,4942	2,95942378
3	0	456819,9942	2,95911837
3	0	456820,4942	2,95902276
3	0	456820,9942	2,9586792
3	0	456821,4942	2,95846915
3	0	456821,9942	2,95810628
3	0	456822,4942	2,95797253
3	0	456822,9942	2,95764804
3	0	456823,4942	2,95741892
3	0	456823,9942	2,95713234
3	0	456824,4942	2,95688415
3	0	456824,9942	2,95659781
3	0	456825,4942	2,95652127
3	0	456825,9942	2,95621586
3	0	456826,4942	2,95600581
3	0	456826,9942	2,95566201
3	0	456827,4942	2,95541382
3	0	456827,9942	2,95520377
3	0	456828,4942	2,95499372
3	0	456828,9942	2,95463085
3	0	456829,4942	2,95444012
3	0	456829,9942	2,95424914
3	0	456830,4942	2,95405817
3	0	456830,9942	2,95367622
3	0	456831,4942	2,95348525
3	0	456831,9942	2,95333242
3	0	456832,4942	2,95300794
3	0	456832,9942	2,95275974
3	0	456833,4942	2,95249224
3	0	456833,9942	2,95224404
3	0	456834,4942	2,95207214
3	0	456834,9942	2,95174766
3	0	456835,4942	2,951442
3	0	456835,9942	2,95125127
3	0	456836,4942	2,95104122
3	0	456836,9942	2,9508884
3	0	456837,4942	2,95067835
3	0	456837,9942	2,95025826
3	0	456838,4942	2,95006728
3	0	456838,9942	2,94983816
3	0	456839,4942	2,94960904
3	0	456839,9942	2,94939899
3	0	456840,4942	2,94909334
3	0	456840,9942	2,94901705
3	0	456841,4942	2,94857788
3	0	456841,9942	2,94844413
3	0	456842,4942	2,94817686
3	0	456842,9942	2,94787145
3	0	456843,4942	2,94756579
3	0	456843,9942	2,94747043
3	0	456844,4942	2,94727945
3	0	456844,9942	2,94687843
3	0	456845,4942	2,94680214
3	0	456845,9942	2,94649649
3	0	456846,4942	2,94628644
3	0	456846,9942	2,94611454
3	0	456847,4942	2,94580913
3	0	456847,9942	2,94556093
3	0	456848,4942	2,94531274
3	0	456848,9942	2,94519806
3	0	456849,4942	2,94483519
3	0	456849,9942	2,94472075
3	0	456850,4942	2,94443417
3	0	456850,9941	2,94418597
3	0	456851,4941	2,943995
3	0	456851,9941	2,94363236
3	0	456852,4941	2,94357491
3	0	456852,9941	2,94328856
3	0	456853,4941	2,94304037
3	0	456853,9941	2,94279218
3	0	456854,4941	2,94258213
3	0	456854,9941	2,94237208
3	0	456855,4941	2,94204736
3	0	456855,9941	2,94189477
3	0	456856,4941	2,94168472
3	0	456856,9941	2,94134092
3	0	456857,4941	2,94122624
3	0	456857,9941	2,94092083
3	0	456858,4941	2,94069171
3	0	456858,9941	2,94051981
3	0	456859,4941	2,94038606
3	0	456859,9941	2,94006157
3	0	456860,4941	2,93988967
3	0	456860,9941	2,93958426
3	0	456861,4941	2,93948865
3	0	456861,9941	2,93914509
3	0	456862,4941	2,93897319
3	0	456862,9941	2,93870592
3	0	456863,4941	2,93861032
3	0	456863,9941	2,93841934
3	0	456864,4941	2,93811393
3	0	456864,9941	2,93780828
3	0	456865,4941	2,93757915
3	0	456865,9941	2,93746471
3	0	456866,4941	2,93725467
3	0	456866,9941	2,93689179
3	0	456867,4941	2,93666267
3	0	456867,9941	2,93650985
3	0	456868,4941	2,93624258
3	0	456868,9941	2,93601346
3	0	456869,4941	2,93589878
3	0	456869,9941	2,93563151
3	0	456870,4941	2,93536425
3	0	456870,9941	2,93526864
3	0	456871,4941	2,93503952
3	0	456871,9941	2,9348104
3	0	456872,4941	2,93446684
3	0	456872,9941	2,93435216
3	0	456873,4941	2,93402767
3	0	456873,9941	2,93391299
3	0	456874,4941	2,9336648
3	0	456874,9941	2,93345475
3	0	456875,4941	2,93324471
3	0	456875,9941	2,93297744
3	0	456876,4941	2,93276739
3	0	456876,9941	2,93263364
3	0	456877,4941	2,93251896
3	0	456877,9941	2,93221354
3	0	456878,4941	2,93204165
3	0	456878,9941	2,93171716
3	0	456879,4941	2,93156433
3	0	456879,9941	2,9314115
3	0	456880,4941	2,93106794
3	0	456880,9941	2,9308579
3	0	456881,4941	2,93059039
3	0	456881,9941	2,93060946
3	0	456882,4941	2,93018937
3	0	456882,9941	2,93022776
3	0	456883,4941	2,92990303
3	0	456883,9941	2,92954016
3	0	456884,4941	2,92948294
3	0	456884,9941	2,92917752
3	0	456885,4941	2,92892933
3	0	456885,9941	2,9288528
3	0	456886,4941	2,92858553
3	0	456886,9941	2,9282608
3	0	456887,4941	2,92812729
3	0	456887,9941	2,92799354
3	0	456888,4941	2,92755437
3	0	456888,9941	2,92755437
3	0	456889,4941	2,92734432
3	0	456889,9941	2,92707705
3	0	456890,4941	2,92690516
3	0	456890,9941	2,92680979
3	0	456891,4941	2,92648506
3	0	456891,9941	2,92619872
3	0	456892,4941	2,92614126
3	0	456892,9941	2,92591214
3	0	456893,4941	2,92575955
3	0	456893,9941	2,92543483
3	0	456894,4941	2,92522478
3	0	456894,9941	2,92511034
3	0	456895,4941	2,92488098
3	0	456895,9941	2,92470932
3	0	456896,4941	2,9244802
3	0	456896,9941	2,9243083
3	0	456897,4941	2,92411733
3	0	456897,9941	2,92383099
3	0	456898,4941	2,92362094
3	0	456898,9941	2,92341089
3	0	456899,4941	2,92325807
3	0	456899,9941	2,92300987
3	0	456900,4941	2,92279983
3	0	456900,9941	2,922647
3	0	456901,4941	2,92234159
3	0	456901,9941	2,92218876
3	0	456902,4941	2,92186403
3	0	456902,9941	2,92182589
3	0	456903,4941	2,92157769
3	0	456903,9941	2,92146301
3	0	456904,4941	2,92117667
3	0	456904,9941	2,9209857
3	0	456905,4941	2,9207375
3	0	456905,9941	2,92052746
3	0	456906,4941	2,92052746
3	0	456906,9941	2,92020273
3	0	456907,4941	2,920012
3	0	456907,9941	2,91985917
3	0	456908,4941	2,91961098
3	0	456908,9941	2,91942
3	0	456909,4941	2,91917181
3	0	456909,9941	2,91892338
3	0	456910,4941	2,91875172
3	0	456910,9941	2,91867518
3	0	456911,4941	2,91850328
3	0	456911,9941	2,91823602
3	0	456912,4941	2,91798782
3	0	456912,9941	2,91787338
3	0	456913,4941	2,91752958
3	0	456913,9941	2,91745329
3	0	456914,4941	2,91728139
3	0	456914,9941	2,91705227
3	0	456915,4941	2,91682315
3	0	456915,9941	2,91665125
3	0	456916,4941	2,91657472
3	0	456916,9941	2,9163456
3	0	456917,4941	2,91607833
3	0	456917,9941	2,91581106
3	0	456918,4941	2,91569638
3	0	456918,9941	2,91556287
3	0	456919,4941	2,91516185
3	0	456919,9941	2,91504717
3	0	456920,4941	2,91483712
3	0	456920,9941	2,91462708
3	0	456921,4941	2,91456985
3	0	456921,9941	2,91441703
3	0	456922,4941	2,91411161
3	0	456922,9941	2,91401601
3	0	456923,4941	2,91378689
3	0	456923,9941	2,91353869
3	0	456924,4941	2,9132905
3	0	456924,9941	2,9131186
3	0	456925,4941	2,91304231
3	0	456925,9941	2,91271758
3	0	456926,4941	2,91266036
3	0	456926,9941	2,91229749
3	0	456927,4941	2,91216397
3	0	456927,9941	2,91199207
3	0	456928,4941	2,91182017
3	0	456928,9941	2,91168642
3	0	456929,4941	2,91138101
3	0	456929,9941	2,91126633
3	0	456930,4941	2,91107559
3	0	456930,9941	2,91084623
3	0	456931,4941	2,91069365
3	0	456931,9941	2,9104836
3	0	456932,4941	2,9103117
3	0	456932,9941	2,91006351
3	0	456933,4941	2,90985346
3	0	456933,9941	2,90979624
3	0	456934,4941	2,90949059
3	0	456934,9941	2,90939522
3	0	456935,4941	2,90928054
3	0	456935,9941	2,90893674
3	0	456936,4941	2,90893674
3	0	456936,9941	2,90870762
3	0	456937,4941	2,90845942
3	0	456937,9941	2,90828753
3	0	456938,4941	2,90809679
3	0	456938,9941	2,90784836
3	0	456939,4941	2,90777206
3	0	456939,9941	2,90752387
3	0	456940,4941	2,90740919
3	0	456940,9941	2,90718007
3	0	456941,4941	2,90687466
3	0	456941,9941	2,90672183
3	0	456942,4941	2,90658808
3	0	456942,9941	2,90643549
3	0	456943,4941	2,90626359
3	0	456943,9941	2,90607262
3	0	456944,4941	2,90590072
3	0	456944,9941	2,90569067
3	0	456945,4941	2,90546155
3	0	456945,9941	2,90530872
3	0	456946,4941	2,9050796
3	0	456946,9941	2,90483141
3	0	456947,4941	2,90467858
3	0	456947,9941	2,90464044
3	0	456948,4941	2,90437317
3	0	456948,9941	2,9041059
3	0	456949,4941	2,90395308
3	0	456949,9941	2,90372396
3	0	456950,4941	2,90368581
3	0	456950,9941	2,9035902
3	0	456951,4941	2,90334201
3	0	456951,9941	2,90311289
3	0	456952,4941	2,90290284
3	0	456952,9941	2,90269279
3	0	456953,4941	2,90263557
3	0	456953,9941	2,90246367
3	0	456954,4941	2,90225363
3	0	456954,9941	2,90196729
3	0	456955,4941	2,90175724
3	0	456955,9941	2,90164256
3	0	456956,4941	2,90150905
3	0	456956,9941	2,90126061
3	0	456957,4941	2,90116525
3	0	456957,9941	2,90105057
3	0	456958,4941	2,90076423
3	0	456958,9941	2,90057325
3	0	456959,4941	2,90036321
3	0	456959,9941	2,90022969
3	0	456960,4941	2,90013409
3	0	456960,9941	2,89984775
3	0	456961,4941	2,89969492
3	0	456961,9941	2,89935112
3	0	456962,4941	2,89921761
3	0	456962,9941	2,89916015
3	0	456963,4941	2,89881659
3	0	456963,9941	2,89881659
3	0	456964,4941	2,89866376
3	0	456964,9941	2,89843464
3	0	456965,4941	2,89822459
3	0	456965,9941	2,8981483
3	0	456966,4941	2,89793825
3	0	456966,9941	2,89776635
3	0	456967,4941	2,89748001
3	0	456967,9941	2,89751816
3	0	456968,4941	2,89725065
3	0	456968,9941	2,89700246
3	0	456969,4941	2,89688802
3	0	456969,9941	2,8966589
3	0	456970,4941	2,896487
3	0	456970,9941	2,8964107
3	0	456971,4941	2,8961432
3	0	456971,9941	2,89585686
3	0	456972,4941	2,89579964
3	0	456972,9941	2,89560866
3	0	456973,4941	2,89545584
3	0	456973,9941	2,8953414
3	0	456974,4941	2,89501667
3	0	456974,9941	2,89490199
3	0	456975,4941	2,89478755
3	0	456975,9941	2,89459658
3	0	456976,4941	2,8944819
3	0	456976,9941	2,89425278
3	0	456977,4941	2,89411926
3	0	456977,9941	2,89383268
3	0	456978,4941	2,89377546
3	0	456978,9941	2,89356542
3	0	456979,4941	2,89335537
3	0	456979,9941	2,89312625
3	0	456980,4941	2,89306903
3	0	456980,9941	2,89295435
3	0	456981,4941	2,89272523
3	0	456981,9941	2,89255333
3	0	456982,4941	2,89238167
3	0	456982,9941	2,89219069
3	0	456983,4941	2,89209509
3	0	456983,9941	2,89188504
3	0	456984,4941	2,89161777
3	0	456984,9940	2,89135051
3	0	456985,4940	2,89146495
3	0	456985,9940	2,89121675
3	0	456986,4940	2,89096856
3	0	456986,9940	2,89068222
3	0	456987,4940	2,89060569
3	0	456987,9940	2,89049125
3	0	456988,4940	2,89020467
3	0	456988,9940	2,89016652
3	0	456989,4940	2,89007115
3	0	456989,9940	2,88984203
3	0	456990,4940	2,88967013
3	0	456990,9940	2,88955545
3	0	456991,4940	2,88926911
3	0	456991,9940	2,88902092
3	0	456992,4940	2,88903999
3	0	456992,9940	2,88871527
3	0	456993,4940	2,88865805
3	0	456993,9940	2,88848615
3	0	456994,4940	2,88829517
3	0	456994,9940	2,8881042
3	0	456995,4940	2,88793254
3	0	456995,9940	2,88787508
3	0	456996,4940	2,88768411
3	0	456996,9940	2,88751245
3	0	456997,4940	2,88737869
3	0	456997,9940	2,88711143
3	0	456998,4940	2,88693953
3	0	456998,9940	2,88676763
3	0	456999,4940	2,88665318
3	0	456999,9940	2,88655758
3	0	457000,4940	2,88630939
3	0	457000,9940	2,88615656
3	0	457001,4940	2,88592744
3	0	457001,9940	2,88575554
3	0	457002,4940	2,88566017
3	0	457002,9940	2,8854692
3	0	457003,4940	2,88524008
3	0	457003,9940	2,8851254
3	0	457004,4940	2,88489628
3	0	457004,9940	2,88483906
3	0	457005,4940	2,88459086
3	0	457005,9940	2,88449526
3	0	457006,4940	2,8843236
3	0	457006,9940	2,88411355
3	0	457007,4940	2,8839035
3	0	457007,9940	2,88392258
3	0	457008,4940	2,88371253
3	0	457008,9940	2,88348341
3	0	457009,4940	2,88323522
3	0	457009,9940	2,88310146
3	0	457010,4940	2,88294864
3	0	457010,9940	2,88281512
3	0	457011,4940	2,8826623
3	0	457011,9940	2,88252854
3	0	457012,4940	2,8824141
3	0	457012,9940	2,88220406
3	0	457013,4940	2,88191748
3	0	457013,9940	2,88182211
3	0	457014,4940	2,88174582
3	0	457014,9940	2,88155484
3	0	457015,4940	2,88124919
3	0	457015,9940	2,88123012
3	0	457016,4940	2,881001
3	0	457016,9940	2,88090563
3	0	457017,4940	2,88061905
3	0	457017,9940	2,88052368
3	0	457018,4940	2,88035178
3	0	457018,9940	2,88021803
3	0	457019,4940	2,88000798
3	0	457019,9940	2,87991261
3	0	457020,4940	2,87979794
3	0	457020,9940	2,87954974
3	0	457021,4940	2,87954974
3	0	457021,9940	2,8792634
3	0	457022,4940	2,87911057
3	0	457022,9940	2,8789196
3	0	457023,4940	2,87884331
3	0	457023,9940	2,87865233
3	0	457024,4940	2,87853765
3	0	457024,9940	2,87823224
3	0	457025,4940	2,87813687
3	0	457025,9940	2,87802219
3	0	457026,4940	2,87781215
3	0	457026,9940	2,87781215
3	0	457027,4940	2,87762117
3	0	457027,9940	2,87733483
3	0	457028,4940	2,87735391
3	0	457028,9940	2,87702918
3	0	457029,4940	2,87683821
3	0	457029,9940	2,87680006
3	0	457030,4940	2,87657094
3	0	457030,9940	2,87626553
3	0	457031,4940	2,87630367
3	0	457031,9940	2,87605548
3	0	457032,4940	2,87588358
3	0	457032,9940	2,87573075
3	0	457033,4940	2,87574983
3	0	457033,9940	2,87553978
3	0	457034,4940	2,87529159
3	0	457034,9940	2,87506247
3	0	457035,4940	2,87513876
3	0	457035,9940	2,87492871
3	0	457036,4940	2,874547
3	0	457036,9940	2,874547
3	0	457037,4940	2,87433696
3	0	457037,9940	2,87416506
3	0	457038,4940	2,87410784
3	0	457038,9940	2,87391686
3	0	457039,4940	2,87368774
3	0	457039,9940	2,87351584
3	0	457040,4940	2,87353492
3	0	457040,9940	2,87334394
3	0	457041,4940	2,87311482
3	0	457041,9940	2,872962
3	0	457042,4940	2,87286663
3	0	457042,9940	2,87261844
3	0	457043,4940	2,87258005
3	0	457043,9940	2,87246561
3	0	457044,4940	2,87200737
3	0	457044,9940	2,87204552
3	0	457045,4940	2,87183547
3	0	457045,9940	2,87175918
3	0	457046,4940	2,87158728
3	0	457046,9940	2,87143445
3	0	457047,4940	2,8712244
3	0	457047,9940	2,87107158
3	0	457048,4940	2,87097621
3	0	457048,9940	2,87086153
3	0	457049,4940	2,87059426
3	0	457049,9940	2,87055612
3	0	457050,4940	2,870327
3	0	457050,9940	2,87026978
3	0	457051,4940	2,8701551
3	0	457051,9940	2,86992598
3	0	457052,4940	2,86975408
3	0	457052,9940	2,86952496
3	0	457053,4940	2,86948681
3	0	457053,9940	2,86927676
3	0	457054,4940	2,86920047
3	0	457054,9940	2,86908579
3	0	457055,4940	2,86885667
3	0	457055,9940	2,86874199
3	0	457056,4940	2,86860847
3	0	457056,9940	2,86828375
3	0	457057,4940	2,86816931
3	0	457057,9940	2,86809278
3	0	457058,4940	2,86795926
3	0	457058,9940	2,86778736
3	0	457059,4940	2,86763453
3	0	457059,9940	2,86752009
3	0	457060,4940	2,86725259
3	0	457060,9940	2,86704254
3	0	457061,4940	2,86711907
3	0	457061,9940	2,86685157
3	0	457062,4940	2,8665843
3	0	457062,9940	2,86650801
3	0	457063,4940	2,86639333
3	0	457063,9940	2,86622143
3	0	457064,4940	2,86608791
3	0	457064,9940	2,86597323
3	0	457065,4940	2,86585879
3	0	457065,9940	2,86566782
3	0	457066,4940	2,86559153
3	0	457066,9940	2,86532402
3	0	457067,4940	2,8652668
3	0	457067,9940	2,86505675
3	0	457068,4940	2,864923
3	0	457068,9940	2,86471295
3	0	457069,4940	2,86467481
3	0	457069,9940	2,86436939
3	0	457070,4940	2,86435032
3	0	457070,9940	2,86421657
3	0	457071,4940	2,86402559
3	0	457071,9940	2,86383462
3	0	457072,4940	2,86368203
3	0	457072,9940	2,86352921
3	0	457073,4940	2,86337638
3	0	457073,9940	2,86333823
3	0	457074,4940	2,86309004
3	0	457074,9940	2,86291814
3	0	457075,4940	2,86286092
3	0	457075,9940	2,86274624
3	0	457076,4940	2,86247897
3	0	457076,9940	2,86238337
3	0	457077,4940	2,86230707
3	0	457077,9940	2,8621161
3	0	457078,4940	2,86192513
3	0	457078,9940	2,86179161
3	0	457079,4940	2,86165786
3	0	457079,9940	2,86154318
3	0	457080,4940	2,86137152
3	0	457080,9940	2,8611424
3	0	457081,4940	2,8611424
3	0	457081,9940	2,86091328
3	0	457082,4940	2,86087489
3	0	457082,9940	2,8607223
3	0	457083,4940	2,8604548
3	0	457083,9940	2,86041665
3	0	457084,4940	2,86026382
3	0	457084,9940	2,86005378
3	0	457085,4940	2,85986304
3	0	457085,9940	2,85974836
3	0	457086,4940	2,85961461
3	0	457086,9940	2,85950017
3	0	457087,4940	2,85921383
3	0	457087,9940	2,85911822
3	0	457088,4940	2,8589654
3	0	457088,9940	2,8588891
3	0	457089,4940	2,85885096
3	0	457089,9940	2,85860276
3	0	457090,4940	2,85844994
3	0	457090,9940	2,85839272
3	0	457091,4940	2,85808706
3	0	457091,9940	2,85810614
3	0	457092,4940	2,85778165
3	0	457092,9940	2,8577435
3	0	457093,4940	2,85772443
3	0	457093,9940	2,85745692
3	0	457094,4940	2,85730433
3	0	457094,9940	2,85711336
3	0	457095,4940	2,85707498
3	0	457095,9940	2,85684586
3	0	457096,4940	2,85675049
3	0	457096,9940	2,85648322
3	0	457097,4940	2,85640669
3	0	457097,9940	2,85631132
3	0	457098,4940	2,85621572
3	0	457098,9940	2,8559866
3	0	457099,4940	2,85589123
3	0	457099,9940	2,85570025
3	0	457100,4940	2,85570025
3	0	457100,9940	2,85554743
3	0	457101,4940	2,85526109
3	0	457101,9940	2,85520387
3	0	457102,4940	2,85499382
3	0	457102,9940	2,85497475
3	0	457103,4940	2,85468817
3	0	457103,9940	2,85468817
3	0	457104,4940	2,85443997
3	0	457104,9940	2,8544209
3	0	457105,4940	2,85419178
3	0	457105,9940	2,85394359
3	0	457106,4940	2,85388613
3	0	457106,9940	2,85382891
3	0	457107,4940	2,85369539
3	0	457107,9940	2,85340881
3	0	457108,4940	2,85333252
3	0	457108,9940	2,85312247
3	0	457109,4940	2,85306525
3	0	457109,9940	2,85298872
3	0	457110,4940	2,85272145
3	0	457110,9940	2,85272145
3	0	457111,4940	2,85260677
3	0	457111,9940	2,85235858
3	0	457112,4940	2,85237765
3	0	457112,9940	2,85209131
3	0	457113,4940	2,85205317
3	0	457113,9940	2,85193849
3	0	457114,4940	2,85153747
3	0	457114,9940	2,851614
3	0	457115,4940	2,85148025
3	0	457115,9940	2,8513658
3	0	457116,4940	2,85104108
3	0	457116,9940	2,85094571
3	0	457117,4940	2,85090733
3	0	457117,9940	2,85069728
3	0	457118,4940	2,85056376
3	0	457118,9940	2,85052562
3	0	457119,4939	2,85033464
3	0	457119,9939	2,85016274
3	0	457120,4939	2,84999084
3	0	457120,9939	2,84985709
3	0	457121,4939	2,8497808
3	0	457121,9939	2,84951353
3	0	457122,4939	2,84951353
3	0	457122,9939	2,84928441
3	0	457123,4939	2,84911251
3	0	457123,9939	2,84903622
3	0	457124,4939	2,84892154
3	0	457124,9939	2,84884524
3	0	457125,4939	2,84865427
3	0	457125,9939	2,84850144
3	0	457126,4939	2,84832954
3	0	457126,9939	2,84831047
3	0	457127,4939	2,84802413
3	0	457127,9939	2,84794784
3	0	457128,4939	2,84783316
3	0	457128,9939	2,84762311
3	0	457129,4939	2,84735584
3	0	457129,9939	2,84739399
3	0	457130,4939	2,8473177
3	0	457130,9939	2,84716487
3	0	457131,4939	2,84708834
3	0	457131,9939	2,84676385
3	0	457132,4939	2,84678292
3	0	457132,9939	2,84668756
3	0	457133,4939	2,84647751
3	0	457133,9939	2,84636283
3	0	457134,4939	2,84613371
3	0	457134,9939	2,84609556
3	0	457135,4939	2,84598088
3	0	457135,9939	2,84577084
3	0	457136,4939	2,84577084
3	0	457136,9939	2,84554172
3	0	457137,4939	2,84552264
3	0	457137,9939	2,8452363
3	0	457138,4939	2,8452363
3	0	457138,9939	2,84491158
3	0	457139,4939	2,84493065
3	0	457139,9939	2,84470153
3	0	457140,4939	2,84462523
3	0	457140,9939	2,84430051
3	0	457141,4939	2,84431958
3	0	457141,9939	2,84416699
3	0	457142,4939	2,84401417
3	0	457142,9939	2,84395695
3	0	457143,4939	2,84380412
3	0	457143,9939	2,843575
3	0	457144,4939	2,84351778
3	0	457144,9939	2,84344125
3	0	457145,4939	2,84326959
3	0	457145,9939	2,84311676
3	0	457146,4939	2,84290671
3	0	457146,9939	2,84292579
3	0	457147,4939	2,84256291
3	0	457147,9939	2,84263945
3	0	457148,4939	2,84239101
3	0	457148,9939	2,84229565
3	0	457149,4939	2,84221935
3	0	457149,9939	2,84204745
3	0	457150,4939	2,84189463
3	0	457150,9939	2,8417418
3	0	457151,4939	2,84157014
3	0	457151,9939	2,84143639
3	0	457152,4939	2,84137917
3	0	457152,9939	2,84120727
3	0	457153,4939	2,84109259
3	0	457153,9939	2,84082532
3	0	457154,4939	2,84084439
3	0	457154,9939	2,8405962
3	0	457155,4939	2,84055805
3	0	457155,9939	2,84040523
3	0	457156,4939	2,84017611
3	0	457156,9939	2,84013796
3	0	457157,4939	2,84006143
3	0	457157,9939	2,83990884
3	0	457158,4939	2,83966064
3	0	457158,9939	2,83958411
3	0	457159,4939	2,83941221
3	0	457159,9939	2,83933592
3	0	457160,4939	2,83922124
3	0	457160,9939	2,83912587
3	0	457161,4939	2,83889675
3	0	457161,9939	2,83887768
3	0	457162,4939	2,83882046
3	0	457162,9939	2,83857203
3	0	457163,4939	2,83847666
3	0	457163,9939	2,83828568
3	0	457164,4939	2,83817124
3	0	457164,9939	2,83805656
3	0	457165,4939	2,83790374
3	0	457165,9939	2,83769369
3	0	457166,4939	2,83759832
3	0	457166,9939	2,83757925
3	0	457167,4939	2,83738828
3	0	457167,9939	2,83725452
3	0	457168,4939	2,83717823
3	0	457168,9939	2,83706355
3	0	457169,4939	2,83693004
3	0	457169,9939	2,83675814
3	0	457170,4939	2,83652902
3	0	457170,9939	2,83652902
3	0	457171,4939	2,83641434
3	0	457171,9939	2,83618522
3	0	457172,4939	2,83620429
3	0	457172,9939	2,83593702
3	0	457173,4939	2,83582234
3	0	457173,9939	2,83568883
3	0	457174,4939	2,8356123
3	0	457174,9939	2,83534503
3	0	457175,4939	2,83526874
3	0	457175,9939	2,8351922
3	0	457176,4939	2,83509684
3	0	457176,9939	2,8349824
3	0	457177,4939	2,83482957
3	0	457177,9939	2,83473396
3	0	457178,4939	2,8344667
3	0	457178,9939	2,83450484
3	0	457179,4939	2,83427572
3	0	457179,9939	2,8342185
3	0	457180,4939	2,83397031
3	0	457180,9939	2,83385563
3	0	457181,4939	2,83379841
3	0	457181,9939	2,83355021
3	0	457182,4939	2,83356929
3	0	457182,9939	2,83341646
3	0	457183,4939	2,83332109
3	0	457183,9939	2,83303452
3	0	457184,4939	2,83288193
3	0	457184,9939	2,83293915
3	0	457185,4939	2,83276725
3	0	457185,9939	2,83269095
3	0	457186,4939	2,83257627
3	0	457186,9939	2,8323853
3	0	457187,4939	2,83230901
3	0	457187,9939	2,83219433
3	0	457188,4939	2,83196521
3	0	457188,9939	2,83188891
3	0	457189,4939	2,83169794
3	0	457189,9939	2,83175516
3	0	457190,4939	2,8315835
3	0	457190,9939	2,83133507
3	0	457191,4939	2,83118248
3	0	457191,9939	2,8310678
3	0	457192,4939	2,83101058
3	0	457192,9939	2,83080053
3	0	457193,4939	2,83060956
3	0	457193,9939	2,83062863
3	0	457194,4939	2,83049488
3	0	457194,9939	2,83043766
3	0	457195,4939	2,83020854
3	0	457195,9939	2,83013225
3	0	457196,4939	2,82990313
3	0	457196,9939	2,82990313
3	0	457197,4939	2,82973123
3	0	457197,9939	2,82961655
3	0	457198,4939	2,82942557
3	0	457198,9939	2,82933021
3	0	457199,4939	2,82921553
3	0	457199,9939	2,82919645
3	0	457200,4939	2,82898641
3	0	457200,9939	2,82891011
3	0	457201,4939	2,82883382
3	0	457201,9939	2,8286047
3	0	457202,4939	2,82856631
3	0	457202,9939	2,82837534
3	0	457203,4939	2,8282609
3	0	457203,9939	2,8281846
3	0	457204,4939	2,8279171
3	0	457204,9939	2,82787895
3	0	457205,4939	2,82780266
3	0	457205,9939	2,82757354
3	0	457206,4939	2,82745886
3	0	457206,9939	2,82732511
3	0	457207,4939	2,82734442
3	0	457207,9939	2,82711506
3	0	457208,4939	2,8269434
3	0	457208,9939	2,82690525
3	0	457209,4939	2,8267715
3	0	457209,9939	2,8266952
3	0	457210,4939	2,82646585
3	0	457210,9939	2,82637048
3	0	457211,4939	2,82629418
3	0	457211,9939	2,8261795
3	0	457212,4939	2,82604575
3	0	457212,9939	2,82598853
3	0	457213,4939	2,82593131
3	0	457213,9939	2,82572126
3	0	457214,4939	2,82554936
3	0	457214,9939	2,82553029
3	0	457215,4939	2,82533932
3	0	457215,9939	2,82522488
3	0	457216,4939	2,82497644
3	0	457216,9939	2,82484293
3	0	457217,4939	2,82463288
3	0	457217,9939	2,82463288
3	0	457218,4939	2,82455635
3	0	457218,9939	2,82446098
3	0	457219,4939	2,82423186
3	0	457219,9939	2,82409811
3	0	457220,4939	2,82405996
3	0	457220,9939	2,82394552
3	0	457221,4939	2,82377362
3	0	457221,9939	2,8237164
3	0	457222,4939	2,82348704
3	0	457222,9939	2,82350636
3	0	457223,4939	2,8234489
3	0	457223,9939	2,82321978
3	0	457224,4939	2,82300973
3	0	457224,9939	2,82289529
3	0	457225,4939	2,8228569
3	0	457225,9939	2,82264686
3	0	457226,4939	2,82257056
3	0	457226,9939	2,82245612
3	0	457227,4939	2,82237959
3	0	457227,9939	2,8221314
3	0	457228,4939	2,82209325
3	0	457228,9939	2,82182598
3	0	457229,4939	2,8217876
3	0	457229,9939	2,82165408
3	0	457230,4939	2,82161593
3	0	457230,9939	2,82144403
3	0	457231,4939	2,82127213
3	0	457231,9939	2,82129121
3	0	457232,4939	2,82110023
3	0	457232,9939	2,82111931
3	0	457233,4939	2,82094741
3	0	457233,9939	2,82069921
3	0	457234,4939	2,82064199
3	0	457234,9939	2,82043195
3	0	457235,4939	2,82041287
3	0	457235,9939	2,82026005
3	0	457236,4939	2,82020283
3	0	457236,9939	2,82010746
3	0	457237,4939	2,81995463
3	0	457237,9939	2,81976366
3	0	457238,4939	2,81964898
3	0	457238,9939	2,81949639
3	0	457239,4939	2,81941986
3	0	457239,9939	2,81934357
3	0	457240,4939	2,81917167
3	0	457240,9939	2,81917167
3	0	457241,4939	2,81901884
3	0	457241,9939	2,8189044
3	0	457242,4939	2,81880879
3	0	457242,9939	2,81859875
3	0	457243,4939	2,81857967
3	0	457243,9939	2,81831241
3	0	457244,4939	2,81829333
3	0	457244,9939	2,81810236
3	0	457245,4939	2,81800699
3	0	457245,9939	2,81804514
3	0	457246,4939	2,81779695
3	0	457246,9939	2,81773949
3	0	457247,4939	2,81760597
3	0	457247,9939	2,81739593
3	0	457248,4939	2,81733847
3	0	457248,9939	2,81730032
3	0	457249,4939	2,81705213
3	0	457249,9939	2,8170712
3	0	457250,4939	2,81686115
3	0	457250,9939	2,81674671
3	0	457251,4939	2,81670856
3	0	457251,9939	2,81649852
3	0	457252,4939	2,81628847
3	0	457252,9939	2,81628847
3	0	457253,4938	2,81611657
3	0	457253,9938	2,8160975
3	0	457254,4938	2,8159256
3	0	457254,9938	2,81586838
3	0	457255,4938	2,81579185
3	0	457255,9938	2,8155055
3	0	457256,4938	2,81554365
3	0	457256,9938	2,81535268
3	0	457257,4938	2,81510448
3	0	457257,9938	2,81510448
3	0	457258,4938	2,81504726
3	0	457258,9938	2,81477976
3	0	457259,4938	2,81483722
3	0	457259,9938	2,81466532
3	0	457260,4938	2,81456971
3	0	457260,9938	2,81439805
3	0	457261,4938	2,81437898
3	0	457261,9938	2,81416893
3	0	457262,4938	2,81413054
3	0	457262,9938	2,8140161
3	0	457263,4938	2,81380606
3	0	457263,9938	2,81365323
3	0	457264,4938	2,81353879
3	0	457264,9938	2,81353879
3	0	457265,4938	2,81338596
3	0	457265,9938	2,81330967
3	0	457266,4938	2,81317592
3	0	457266,9938	2,8131187
3	0	457267,4938	2,81292772
3	0	457267,9938	2,81283212
3	0	457268,4938	2,81267953
3	0	457268,9938	2,81258392
3	0	457269,4938	2,81239295
3	0	457269,9938	2,81227851
3	0	457270,4938	2,81233573
3	0	457270,9938	2,81214476
3	0	457271,4938	2,81197286
3	0	457271,9938	2,81187749
3	0	457272,4938	2,81180096
3	0	457272,9938	2,81155276
3	0	457273,4938	2,81151462
3	0	457273,9938	2,81151462
3	0	457274,4938	2,81140018
3	0	457274,9938	2,8112855
3	0	457275,4938	2,81113267
3	0	457275,9938	2,81099916
3	0	457276,4938	2,8109417
3	0	457276,9938	2,81067443
3	0	457277,4938	2,81065536
3	0	457277,9938	2,81057906
3	0	457278,4938	2,81040716
3	0	457278,9938	2,81027341
3	0	457279,4938	2,81004429
3	0	457279,9938	2,81012082
3	0	457280,4938	2,80992985
3	0	457280,9938	2,80989146
3	0	457281,4938	2,80979609
3	0	457281,9938	2,80966234
3	0	457282,4938	2,80952883
3	0	457282,9938	2,80949068
3	0	457283,4938	2,80933785
3	0	457283,9938	2,80912781
3	0	457284,4938	2,80905151
3	0	457284,9938	2,80901313
3	0	457285,4938	2,80893683
3	0	457285,9938	2,80870771
3	0	457286,4938	2,80870771
3	0	457286,9938	2,80851674
3	0	457287,4938	2,80842137
3	0	457287,9938	2,80834484
3	0	457288,4938	2,80819201
3	0	457288,9938	2,80802035
3	0	457289,4938	2,80796289
3	0	457289,9938	2,80786753
3	0	457290,4938	2,80777192
3	0	457290,9938	2,80756187
3	0	457291,4938	2,8075428
3	0	457291,9938	2,80735207
3	0	457292,4938	2,80706549
3	0	457292,9938	2,80718017
3	0	457293,4938	2,80706549
3	0	457293,9938	2,80689359
3	0	457294,4938	2,80691266
3	0	457294,9938	2,806741
3	0	457295,4938	2,80653095
3	0	457295,9938	2,80653095
3	0	457296,4938	2,80641627
3	0	457296,9938	2,80624437
3	0	457297,4938	2,80614901
3	0	457297,9938	2,80612993
3	0	457298,4938	2,80593896
3	0	457298,9938	2,80574799
3	0	457299,4938	2,80565262
3	0	457299,9938	2,80551887
3	0	457300,4938	2,80534697
3	0	457300,9938	2,80534697
3	0	457301,4938	2,80530882
3	0	457301,9938	2,8050797
3	0	457302,4938	2,80496502
3	0	457302,9938	2,80496502
3	0	457303,4938	2,8047359
3	0	457303,9938	2,80471683
3	0	457304,4938	2,804564
3	0	457304,9938	2,80444956
3	0	457305,4938	2,80441141
3	0	457305,9938	2,80425858
3	0	457306,4938	2,80404854
3	0	457306,9938	2,80399132
3	0	457307,4938	2,80395317
3	0	457307,9938	2,80385756
3	0	457308,4938	2,80366659
3	0	457308,9938	2,80355215
3	0	457309,4938	2,80339932
3	0	457309,9938	2,80332303
3	0	457310,4938	2,80320835
3	0	457310,9938	2,80315113
3	0	457311,4938	2,80311298
3	0	457311,9938	2,80294108
3	0	457312,4938	2,8028264
3	0	457312,9938	2,80271196
3	0	457313,4938	2,80254006
3	0	457313,9938	2,80250192
3	0	457314,4938	2,80233002
3	0	457314,9938	2,80213904
3	0	457315,4938	2,80215812
3	0	457315,9938	2,80200529
3	0	457316,4938	2,80198622
3	0	457316,9938	2,80169988
3	0	457317,4938	2,80173802
3	0	457317,9938	2,8015852
3	0	457318,4938	2,80148983
3	0	457318,9938	2,80145168
3	0	457319,4938	2,80131793
3	0	457319,9938	2,8011651
3	0	457320,4938	2,80106974
3	0	457320,9938	2,80095506
3	0	457321,4938	2,80076432
3	0	457321,9938	2,80072594
3	0	457322,4938	2,80066872
3	0	457322,9938	2,80047774
3	0	457323,4938	2,80038238
3	0	457323,9938	2,80034423
3	0	457324,4938	2,8001914
3	0	457324,9938	2,80011487
3	0	457325,4938	2,79990482
3	0	457325,9938	2,79982853
3	0	457326,4938	2,79973316
3	0	457326,9938	2,79971409
3	0	457327,4938	2,79959941
3	0	457327,9938	2,79935122
3	0	457328,4938	2,79938936
3	0	457328,9938	2,79917932
3	0	457329,4938	2,79910302
3	0	457329,9938	2,7989502
3	0	457330,4938	2,7989502
3	0	457330,9938	2,798702
3	0	457331,4938	2,798702
3	0	457331,9938	2,79851103
3	0	457332,4938	2,79839635
3	0	457332,9938	2,79839635
3	0	457333,4938	2,79828191
3	0	457333,9938	2,79807186
3	0	457334,4938	2,79797626
3	0	457334,9938	2,79788089
3	0	457335,4938	2,79770899
3	0	457335,9938	2,79770899
3	0	457336,4938	2,79768991
3	0	457336,9938	2,79749894
3	0	457337,4938	2,79740357
3	0	457337,9938	2,79732704
3	0	457338,4938	2,79717445
3	0	457338,9938	2,79700255
3	0	457339,4938	2,79688787
3	0	457339,9938	2,79675436
3	0	457340,4938	2,79675436
3	0	457340,9938	2,79650593
3	0	457341,4938	2,79648685
3	0	457341,9938	2,79648685
3	0	457342,4938	2,79633427
3	0	457342,9938	2,79621959
3	0	457343,4938	2,79612422
3	0	457343,9938	2,79602861
3	0	457344,4938	2,79583764
3	0	457344,9938	2,79574227
3	0	457345,4938	2,79560852
3	0	457345,9938	2,79564667
3	0	457346,4938	2,79547501
3	0	457346,9938	2,79547501
3	0	457347,4938	2,79515028
3	0	457347,9938	2,79501653
3	0	457348,4938	2,79509306
3	0	457348,9938	2,79497838
3	0	457349,4938	2,79484487
3	0	457349,9938	2,79478741
3	0	457350,4938	2,79467297
3	0	457350,9938	2,79452014
3	0	457351,4938	2,79432917
3	0	457351,9938	2,7942338
3	0	457352,4938	2,79419565
3	0	457352,9938	2,79400468
3	0	457353,4938	2,79400468
3	0	457353,9938	2,79381371
3	0	457354,4938	2,7937181
3	0	457354,9938	2,79366088
3	0	457355,4938	2,79350805
3	0	457355,9938	2,79354644
3	0	457356,4938	2,79331708
3	0	457356,9938	2,79318357
3	0	457357,4938	2,79314542
3	0	457357,9938	2,79304981
3	0	457358,4938	2,79293537
3	0	457358,9938	2,79280162
3	0	457359,4938	2,79282069
3	0	457359,9938	2,79272532
3	0	457360,4938	2,7924962
3	0	457360,9938	2,79234338
3	0	457361,4938	2,79234338
3	0	457361,9938	2,7921524
3	0	457362,4938	2,79196143
3	0	457362,9938	2,79199958
3	0	457363,4938	2,79180861
3	0	457363,9938	2,79177046
3	0	457364,4938	2,79161763
3	0	457364,9938	2,79156041
3	0	457365,4938	2,79150319
3	0	457365,9938	2,79135036
3	0	457366,4938	2,79129314
3	0	457366,9938	2,79117846
3	0	457367,4938	2,79114032
3	0	457367,9938	2,79106402
3	0	457368,4938	2,79081583
3	0	457368,9938	2,79079676
3	0	457369,4938	2,79060578
3	0	457369,9938	2,79052925
3	0	457370,4938	2,79043388
3	0	457370,9938	2,79041481
3	0	457371,4938	2,7903192
3	0	457371,9938	2,79014754
3	0	457372,4938	2,79003286
3	0	457372,9938	2,78997564
3	0	457373,4938	2,78989911
3	0	457373,9938	2,78974652
3	0	457374,4938	2,78955555
3	0	457374,9938	2,78968906
3	0	457375,4938	2,78945994
3	0	457375,9938	2,78936458
3	0	457376,4938	2,78923082
3	0	457376,9938	2,78909731
3	0	457377,4938	2,78905892
3	0	457377,9938	2,78894448
3	0	457378,4938	2,78860068
3	0	457378,9938	2,78869629
3	0	457379,4938	2,78861976
3	0	457379,9938	2,78852439
3	0	457380,4938	2,78852439
3	0	457380,9938	2,7882762
3	0	457381,4938	2,78825712
3	0	457381,9938	2,78800869
3	0	457382,4938	2,78797054
3	0	457382,9938	2,78787518
3	0	457383,4938	2,78781796
3	0	457383,9938	2,78756952
3	0	457384,4938	2,78753138
3	0	457384,9938	2,78753138
3	0	457385,4938	2,78747416
3	0	457385,9938	2,7873404
3	0	457386,4938	2,78713036
3	0	457386,9938	2,78716874
3	0	457387,4937	2,78682494
3	0	457387,9937	2,78703499
3	0	457388,4937	2,78682494
3	0	457388,9937	2,78669119
3	0	457389,4937	2,78657675
3	0	457389,9937	2,786443
3	0	457390,4937	2,78634763
3	0	457390,9937	2,7861948
3	0	457391,4937	2,78617573
3	0	457391,9937	2,78606105
3	0	457392,4937	2,78608012
3	0	457392,9937	2,78575563
3	0	457393,4937	2,78579378
3	0	457393,9937	2,78566003
3	0	457394,4937	2,78556466
3	0	457394,9937	2,78543091
3	0	457395,4937	2,78533554
3	0	457395,9937	2,78527832
3	0	457396,4937	2,78522086
3	0	457396,9937	2,78499174
3	0	457397,4937	2,78506827
3	0	457397,9937	2,78481984
3	0	457398,4937	2,78476262
3	0	457398,9937	2,78464818
3	0	457399,4937	2,78447628
3	0	457399,9937	2,78449535
3	0	457400,4937	2,78430438
3	0	457400,9937	2,78422809
3	0	457401,4937	2,78413248
3	0	457401,9937	2,78405619
3	0	457402,4937	2,78392243
3	0	457402,9937	2,78392243
3	0	457403,4937	2,78369331
3	0	457403,9937	2,78367424
3	0	457404,4937	2,78346419
3	0	457404,9937	2,78346419
3	0	457405,4937	2,7833879
3	0	457405,9937	2,78317785
3	0	457406,4937	2,78310132
3	0	457406,9937	2,7830441
3	0	457407,4937	2,78296781
3	0	457407,9937	2,78275776
3	0	457408,4937	2,78268123
3	0	457408,9937	2,78258586
3	0	457409,4937	2,78252864
3	0	457409,9937	2,78247118
3	0	457410,4937	2,78231859
3	0	457410,9937	2,78222299
3	0	457411,4937	2,7820704
3	0	457411,9937	2,78208947
3	0	457412,4937	2,78199387
3	0	457412,9937	2,78178382
3	0	457413,4937	2,78168845
3	0	457413,9937	2,7816503
3	0	457414,4937	2,78151655
3	0	457414,9937	2,78140187
3	0	457415,4937	2,78144026
3	0	457415,9937	2,78123021
3	0	457416,4937	2,78115368
3	0	457416,9937	2,78113461
3	0	457417,4937	2,78098178
3	0	457417,9937	2,78092456
3	0	457418,4937	2,78077173
3	0	457418,9937	2,78060007
3	0	457419,4937	2,78063822
3	0	457419,9937	2,78048539
3	0	457420,4937	2,78037095
3	0	457420,9937	2,78033257
3	0	457421,4937	2,78021812
3	0	457421,9937	2,78014159
3	0	457422,4937	2,78002715
3	0	457422,9937	2,77991247
3	0	457423,4937	2,77983618
3	0	457423,9937	2,77977896
3	0	457424,4937	2,77962613
3	0	457424,9937	2,77958798
3	0	457425,4937	2,77939701
3	0	457425,9937	2,77928233
3	0	457426,4937	2,77912974
3	0	457426,9937	2,77918696
3	0	457427,4937	2,77905321
3	0	457427,9937	2,77893877
3	0	457428,4937	2,77865219
3	0	457428,9937	2,77872872
3	0	457429,4937	2,77859497
3	0	457429,9937	2,77861404
3	0	457430,4937	2,77836585
3	0	457430,9937	2,77821302
3	0	457431,4937	2,77817488
3	0	457431,9937	2,77813673
3	0	457432,4937	2,77790761
3	0	457432,9937	2,77786946
3	0	457433,4937	2,77779293
3	0	457433,9937	2,77765942
3	0	457434,4937	2,7776022
3	0	457434,9937	2,77750659
3	0	457435,4937	2,77748752
3	0	457435,9937	2,77737284
3	0	457436,4937	2,77737284
3	0	457436,9937	2,77712464
3	0	457437,4937	2,77706742
3	0	457437,9937	2,77699113
3	0	457438,4937	2,77681923
3	0	457438,9937	2,77676201
3	0	457439,4937	2,7766664
3	0	457439,9937	2,77639914
3	0	457440,4937	2,77651358
3	0	457440,9937	2,77624631
3	0	457441,4937	2,77628446
3	0	457441,9937	2,77613187
3	0	457442,4937	2,77615094
3	0	457442,9937	2,7759409
3	0	457443,4937	2,77597904
3	0	457443,9937	2,7759409
3	0	457444,4937	2,7756927
3	0	457444,9937	2,77567339
3	0	457445,4937	2,77555895
3	0	457445,9937	2,77557802
3	0	457446,4937	2,7752533
3	0	457446,9937	2,77523422
3	0	457447,4937	2,77502418
3	0	457447,9937	2,77511978
3	0	457448,4937	2,77496696
3	0	457448,9937	2,77498603
3	0	457449,4937	2,77475691
3	0	457449,9937	2,77475691
3	0	457450,4937	2,77456594
3	0	457450,9937	2,77462339
3	0	457451,4937	2,77435589
3	0	457451,9937	2,77439404
3	0	457452,4937	2,77414584
3	0	457452,9937	2,77410769
3	0	457453,4937	2,77410769
3	0	457453,9937	2,77378321
3	0	457454,4937	2,77387857
3	0	457454,9937	2,77363038
3	0	457455,4937	2,77355385
3	0	457455,9937	2,77349663
3	0	457456,4937	2,77355385
3	0	457456,9937	2,77342033
3	0	457457,4937	2,77328658
3	0	457457,9937	2,77321029
3	0	457458,4937	2,77311468
3	0	457458,9937	2,77288556
3	0	457459,4937	2,77296209
3	0	457459,9937	2,77279019
3	0	457460,4937	2,77267551
3	0	457460,9937	2,77263737
3	0	457461,4937	2,77258015
3	0	457461,9937	2,77240825
3	0	457462,4937	2,77231288
3	0	457462,9937	2,77216005
3	0	457463,4937	2,77206445
3	0	457463,9937	2,77206445
3	0	457464,4937	2,77191186
3	0	457464,9937	2,77183533
3	0	457465,4937	2,77183533
3	0	457465,9937	2,77160621
3	0	457466,4937	2,77156806
3	0	457466,9937	2,77149177
3	0	457467,4937	2,77137709
3	0	457467,9937	2,77128172
3	0	457468,4937	2,77110982
3	0	457468,9937	2,7710526
3	0	457469,4937	2,77109075
3	0	457469,9937	2,77086163
3	0	457470,4937	2,77089977
3	0	457470,9937	2,77074695
3	0	457471,4937	2,77061343
3	0	457471,9937	2,7705369
3	0	457472,4937	2,77032685
3	0	457472,9937	2,77038431
3	0	457473,4937	2,77015495
3	0	457473,9937	2,77019334
3	0	457474,4937	2,77005959
3	0	457474,9937	2,77011681
3	0	457475,4937	2,76992583
3	0	457475,9937	2,76965857
3	0	457476,4937	2,76967764
3	0	457476,9937	2,76969671
3	0	457477,4937	2,76954412
3	0	457477,9937	2,76942945
3	0	457478,4937	2,76927662
3	0	457478,9937	2,76929569
3	0	457479,4937	2,76920033
3	0	457479,9937	2,7690475
3	0	457480,4937	2,76889491
3	0	457480,9937	2,76891398
3	0	457481,4937	2,76872301
3	0	457481,9937	2,76876116
3	0	457482,4937	2,76862741
3	0	457482,9937	2,76834106
3	0	457483,4937	2,76839828
3	0	457483,9937	2,76834106
3	0	457484,4937	2,76830292
3	0	457484,9937	2,76797819
3	0	457485,4937	2,76811194
3	0	457485,9937	2,76799726
3	0	457486,4937	2,76784468
3	0	457486,9937	2,76780629
3	0	457487,4937	2,7676537
3	0	457487,9937	2,76740551
3	0	457488,4937	2,76746273
3	0	457488,9937	2,76744366
3	0	457489,4937	2,76732898
3	0	457489,9937	2,76725268
3	0	457490,4937	2,76708078
3	0	457490,9937	2,76702356
3	0	457491,4937	2,76694703
3	0	457491,9937	2,76690888
3	0	457492,4937	2,76675606
3	0	457492,9937	2,76662254
3	0	457493,4937	2,76660347
3	0	457493,9937	2,7664125
3	0	457494,4937	2,7663362
3	0	457494,9937	2,76635528
3	0	457495,4937	2,7662406
3	0	457495,9937	2,76604962
3	0	457496,4937	2,7660687
3	0	457496,9937	2,76587772
3	0	457497,4937	2,7658205
3	0	457497,9937	2,7658205
3	0	457498,4937	2,76553416
3	0	457498,9937	2,76559138
3	0	457499,4937	2,76536226
3	0	457499,9937	2,76543856
3	0	457500,4937	2,76530504
3	0	457500,9937	2,76522851
3	0	457501,4937	2,76519036
3	0	457501,9937	2,76499939
3	0	457502,4937	2,76490402
3	0	457502,9937	2,76498032
3	0	457503,4937	2,76477027
3	0	457503,5989	2,7647512